Distance (in),Time (s),X (in),Y (in),Velocity (in/s),Orientation (deg),Touch,Way X (in),Way Y (in),Way Velocity (in/s),Way Orientation (deg),Way Turn Radius (in),Touch this Point
0.0,0.0,180.0,90.0,0.0,0.0,0,180.0,90.0,0.0,0.0,3.0,0
1.0000000000000056,0.1666666666666676,180.62987630056966,90.776695465405,12.0,0.0,0,268.42,199.03,60.0,0.0,10.0,0
2.000000000000011,0.2500000000000014,181.25975260113933,91.55339093081,12.0,0.0,0,295.44,74.55,84.0,30.0,3.0,0
3.000000000000017,0.3333333333333352,181.889628901709,92.330086396215,12.0,0.0,0,,,,,,
4.000000000000022,0.41666666666666896,182.51950520227865,93.10678186162,12.0,0.0,0,,,,,,
5.0000000000000275,0.5000000000000028,183.1493815028483,93.88347732702499,12.0,0.0,0,,,,,,
6.000000000000033,0.5833333333333366,183.77925780341798,94.66017279242999,12.0,0.0,0,,,,,,
7.000000000000038,0.6666666666666704,184.40913410398764,95.43686825783499,12.0,0.0,0,,,,,,
8.000000000000044,0.7500000000000042,185.0390104045573,96.21356372323999,12.0,0.0,0,,,,,,
9.00000000000005,0.833333333333338,185.66888670512697,96.99025918864498,12.0,0.0,0,,,,,,
10.000000000000055,0.9166666666666718,186.29876300569663,97.76695465404998,12.0,0.0,0,,,,,,
11.00000000000006,1.0000000000000056,186.9286393062663,98.54365011945498,12.0,0.0,0,,,,,,
12.000000000000066,1.0833333333333393,187.55851560683595,99.32034558485998,12.0,0.0,0,,,,,,
13.000000000000071,1.166666666666673,188.18839190740562,100.09704105026498,12.0,0.0,0,,,,,,
14.000000000000076,1.2500000000000067,188.81826820797528,100.87373651566998,12.0,0.0,0,,,,,,
15.000000000000082,1.3333333333333404,189.44814450854494,101.65043198107497,12.0,0.0,0,,,,,,
16.00000000000009,1.4166666666666743,190.0780208091146,102.42712744647997,12.0,0.0,0,,,,,,
17.000000000000096,1.5000000000000082,190.70789710968427,103.20382291188497,12.0,0.0,0,,,,,,
18.000000000000103,1.5833333333333421,191.33777341025393,103.98051837728997,12.0,0.0,0,,,,,,
19.00000000000011,1.666666666666676,191.9676497108236,104.75721384269497,12.0,0.0,0,,,,,,
20.000000000000117,1.75000000000001,192.59752601139326,105.53390930809996,12.0,0.0,0,,,,,,
21.000000000000124,1.833333333333344,193.22740231196292,106.31060477350496,12.0,0.0,0,,,,,,
22.00000000000013,1.9166666666666778,193.85727861253258,107.08730023890996,12.0,0.0,0,,,,,,
23.00000000000014,2.0000000000000115,194.48715491310224,107.86399570431496,12.0,0.0,0,,,,,,
24.000000000000146,2.0833333333333455,195.1170312136719,108.64069116971996,12.0,0.0,0,,,,,,
25.000000000000153,2.1666666666666794,195.74690751424157,109.41738663512496,12.0,0.0,0,,,,,,
26.00000000000016,2.2500000000000133,196.37678381481123,110.19408210052995,12.0,0.0,0,,,,,,
27.000000000000167,2.332078611581067,197.0066601153809,110.97077756593495,12.366883911346127,0.0,0,,,,,,
28.000000000000174,2.4114695227318874,197.63653641595056,111.74747303133995,12.824916648803391,0.0,0,,,,,,
29.00000000000018,2.488074787877416,198.26641271652022,112.52416849674495,13.282949386260656,0.0,0,,,,,,
30.00000000000019,2.562083264373943,198.89628901708988,113.30086396214995,13.74098212371792,0.0,0,,,,,,
31.000000000000195,2.6336652334443547,199.52616531765955,114.07755942755495,14.199014861175185,0.0,0,,,,,,
32.0000000000002,2.7029747590522133,200.1560416182292,114.85425489295994,14.657047598632447,0.0,0,,,,,,
33.000000000000206,2.7701516838721383,200.78591791879887,115.63095035836494,15.115080336089711,0.0,0,,,,,,
34.00000000000021,2.8353233273541547,201.41579421936854,116.40764582376994,15.573113073546976,0.0,0,,,,,,
35.00000000000022,2.898605937691765,202.0456705199382,117.18434128917494,16.03114581100424,0.0,0,,,,,,
36.00000000000023,2.960105939287471,202.67554682050786,117.96103675457994,16.489178548461503,0.0,0,,,,,,
37.000000000000234,3.0199210093326094,203.30542312107752,118.73773221998493,16.94721128591877,0.0,0,,,,,,
38.00000000000024,3.078141010843211,203.9352994216472,119.51442768538993,17.405244023376035,0.0,0,,,,,,
39.00000000000025,3.134848804522368,204.56517572221685,120.29112315079493,17.8632767608333,0.0,0,,,,,,
40.000000000000256,3.1901209578552177,205.1950520227865,121.06781861619993,18.321309498290567,0.0,0,,,,,,
41.00000000000026,3.2440283666613303,205.82492832335618,121.84451408160493,18.779342235747833,0.0,0,,,,,,
42.00000000000027,3.2966368017612715,206.45480462392584,122.62120954700993,19.2373749732051,0.0,0,,,,,,
43.00000000000028,3.3480073913294492,207.0846809244955,123.39790501241492,19.695407710662366,0.0,0,,,,,,
44.000000000000284,3.3981970478041057,207.71455722506516,124.17460047781992,20.153440448119632,0.0,0,,,,,,
45.00000000000029,3.4472588468298935,208.34443352563483,124.95129594322492,20.611473185576898,0.0,0,,,,,,
46.0000000000003,3.495242364558411,208.9743098262045,125.72799140862992,21.069505923034164,0.0,0,,,,,,
47.000000000000306,3.542193978679864,209.60418612677415,126.50468687403492,21.52753866049143,0.0,0,,,,,,
48.00000000000031,3.588157137767181,210.23406242734382,127.28138233943992,21.985571397948696,0.0,0,,,,,,
49.00000000000032,3.6331726028526976,210.86393872791348,128.0580778048449,22.443604135405963,0.0,0,,,,,,
50.00000000000033,3.6772786646031532,211.49381502848314,128.8347732702499,22.90163687286323,0.0,0,,,,,,
51.000000000000334,3.7205113389922135,212.1236913290528,129.6114687356549,23.359669610320495,0.0,0,,,,,,
52.00000000000034,3.762904543975661,212.75356762962247,130.3881642010599,23.81770234777776,0.0,0,,,,,,
53.00000000000035,3.8044902593403767,213.38344393019213,131.1648596664649,24.275735085235027,0.0,0,,,,,,
54.000000000000355,3.8452986716141626,214.0133202307618,131.9415551318699,24.733767822692293,0.0,0,,,,,,
55.00000000000036,3.8853583056810903,214.64319653133145,132.7182505972749,25.19180056014956,0.0,0,,,,,,
56.00000000000037,3.9246961445396047,215.27307283190112,133.4949460626799,25.649833297606826,0.0,0,,,,,,
57.00000000000038,3.9633377384625703,215.90294913247078,134.2716415280849,26.10786603506409,0.0,0,,,,,,
58.000000000000384,4.001307304665136,216.53282543304044,135.0483369934899,26.565898772521358,0.0,0,,,,,,
59.00000000000039,4.038627818453984,217.1627017336101,135.8250324588949,27.023931509978624,0.0,0,,,,,,
60.0000000000004,4.0753210967169675,217.79257803417977,136.6017279242999,27.48196424743589,0.0,0,,,,,,
61.000000000000405,4.111407874512794,218.42245433474943,137.3784233897049,27.939996984893156,0.0,0,,,,,,
62.00000000000041,4.146907875433893,219.0523306353191,138.1551188551099,28.398029722350422,0.0,0,,,,,,
63.00000000000042,4.181839876340254,219.68220693588876,138.9318143205149,28.85606245980769,0.0,0,,,,,,
64.00000000000043,4.216221766996121,220.31208323645842,139.7085097859199,29.314095197264955,0.0,0,,,,,,
65.00000000000043,4.250070605083679,220.94195953702808,140.48520525132489,29.772127934722217,0.0,0,,,,,,
66.00000000000043,4.28340266701723,221.57183583759775,141.26190071672988,30.23016067217948,0.0,0,,,,,,
67.00000000000043,4.316233494936742,222.2017121381674,142.03859618213488,30.688193409636742,0.0,0,,,,,,
68.00000000000043,4.348577940220409,222.83158843873707,142.81529164753988,31.146226147094005,0.0,0,,,,,,
69.00000000000043,4.380450203821103,223.46146473930673,143.59198711294488,31.604258884551268,0.0,0,,,,,,
70.00000000000043,4.4118638737009235,224.0913410398764,144.36868257834988,32.06229162200853,0.0,0,,,,,,
71.00000000000043,4.4428319596108174,224.72121734044606,145.14537804375487,32.52032435946579,0.0,0,,,,,,
72.00000000000043,4.4733669254380555,225.35109364101572,145.92207350915987,32.97835709692305,0.0,0,,,,,,
73.00000000000043,4.503480719322849,225.98096994158539,146.69876897456487,33.43638983438031,0.0,0,,,,,,
74.00000000000043,4.533184801726217,226.61084624215505,147.47546443996987,33.894422571837566,0.0,0,,,,,,
75.00000000000043,4.562490171614104,227.2407225427247,148.25215990537487,34.352455309294825,0.0,0,,,,,,
76.00000000000043,4.591407390907449,227.87059884329437,149.02885537077987,34.810488046752084,0.0,0,,,,,,
77.00000000000043,4.619946607334214,228.50047514386404,149.80555083618486,35.26852078420934,0.0,0,,,,,,
78.00000000000043,4.648117575807086,229.1303514444337,150.58224630158986,35.7265535216666,0.0,0,,,,,,
79.00000000000043,4.675929678439538,229.76022774500336,151.35894176699486,36.18458625912386,0.0,0,,,,,,
80.00000000000043,4.703391943303029,230.39010404557303,152.13563723239986,36.64261899658112,0.0,0,,,,,,
81.00000000000043,4.730513062019148,231.0199803461427,152.91233269780486,37.10065173403838,0.0,0,,,,,,
82.00000000000043,4.757301406272492,231.64985664671235,153.68902816320985,37.55868447149564,0.0,0,,,,,,
83.00000000000043,4.783765043322766,232.279732947282,154.46572362861485,38.0167172089529,0.0,0,,,,,,
84.00000000000043,4.809911750588006,232.90960924785168,155.24241909401985,38.47474994641016,0.0,0,,,,,,
85.00000000000043,4.8357490293649,233.53948554842134,156.01911455942485,38.932782683867416,0.0,0,,,,,,
86.00000000000043,4.8612841177467425,234.169361848991,156.79581002482985,39.390815421324675,0.0,0,,,,,,
87.00000000000043,4.886524002794691,234.79923814956067,157.57250549023485,39.848848158781934,0.0,0,,,,,,
88.00000000000043,4.91147543201352,235.42911445013033,158.34920095563984,40.30688089623919,0.0,0,,,,,,
89.00000000000043,4.936144924179029,236.0589907507,159.12589642104484,40.76491363369645,0.0,0,,,,,,
90.00000000000043,4.960538779560566,236.68886705126965,159.90259188644984,41.22294637115371,0.0,0,,,,,,
91.00000000000043,4.9846630895787705,237.31874335183932,160.67928735185484,41.68097910861097,0.0,0,,,,,,
92.00000000000043,5.008523745935574,237.94861965240898,161.45598281725984,42.13901184606823,0.0,0,,,,,,
93.00000000000043,5.032126449250683,238.57849595297864,162.23267828266484,42.59704458352549,0.0,0,,,,,,
94.00000000000043,5.055476717236218,239.2083722535483,163.00937374806983,43.05507732098275,0.0,0,,,,,,
95.00000000000043,5.078579892438837,239.83824855411797,163.78606921347483,43.513110058440006,0.0,0,,,,,,
96.00000000000043,5.101441149576508,240.46812485468763,164.56276467887983,43.971142795897265,0.0,0,,,,,,
97.00000000000043,5.124065502495135,241.0980011552573,165.33946014428483,44.429175533354524,0.0,0,,,,,,
98.00000000000043,5.146457810768443,241.72787745582696,166.11615560968983,44.88720827081178,0.0,0,,,,,,
99.00000000000043,5.168622785962834,242.35775375639662,166.89285107509482,45.34524100826904,0.0,0,,,,,,
100.00000000000043,5.190564997587433,242.98763005696628,167.66954654049982,45.8032737457263,0.0,0,,,,,,
101.00000000000043,5.212288878748105,243.61750635753594,168.44624200590482,46.26130648318356,0.0,0,,,,,,
102.00000000000043,5.233798731522958,244.2473826581056,169.22293747130982,46.71933922064082,0.0,0,,,,,,
103.00000000000043,5.255098732075617,244.87725895867527,169.99963293671482,47.17737195809808,0.0,0,,,,,,
104.00000000000043,5.276192935521487,245.50713525924493,170.77632840211982,47.63540469555534,0.0,0,,,,,,
105.00000000000043,5.297085280561176,246.1370115598146,171.55302386752481,48.093437433012596,0.0,0,,,,,,
106.00000000000043,5.317779593894328,246.76688786038426,172.3297193329298,48.551470170469855,0.0,0,,,,,,
107.00000000000043,5.33827959442623,247.39676416095392,173.1064147983348,49.009502907927114,0.0,0,,,,,,
108.00000000000043,5.358588897278765,248.02664046152358,173.8831102637398,49.46753564538437,0.0,0,,,,,,
109.00000000000043,5.3787110176165305,248.65651676209325,174.6598057291448,49.92556838284163,0.0,0,,,,,,
110.00000000000043,5.398649374298243,249.2863930626629,175.4365011945498,50.38360112029889,0.0,0,,,,,,
111.00000000000043,5.418407293362926,249.91626936323257,176.2131966599548,50.84163385775615,0.0,0,,,,,,
112.00000000000043,5.437988011359765,250.54614566380224,176.9898921253598,51.29966659521341,0.0,0,,,,,,
113.00000000000043,5.457394678529965,251.1760219643719,177.7665875907648,51.75769933267067,0.0,0,,,,,,
114.00000000000043,5.476630361848446,251.80589826494156,178.5432830561698,52.21573207012793,0.0,0,,,,,,
115.00000000000043,5.495698047932705,252.43577456551122,179.3199785215748,52.67376480758519,0.0,0,,,,,,
116.00000000000043,5.514600645825757,253.0656508660809,180.0966739869798,53.131797545042446,0.0,0,,,,,,
117.00000000000043,5.533340989659641,253.69552716665055,180.8733694523848,53.589830282499705,0.0,0,,,,,,
118.00000000000043,5.551921841205578,254.3254034672202,181.6500649177898,54.047863019956964,0.0,0,,,,,,
119.00000000000043,5.570345892316528,254.95527976778988,182.4267603831948,54.50589575741422,0.0,0,,,,,,
119.99958615930406,5.588608238071965,255.59284940959733,183.19661585126454,54.96373894228446,0.0,0,,,,,,
120.99916954471765,5.606719040980079,256.2935220460262,183.90951472274259,55.42158085662224,0.0,0,,,,,,
121.99875293013119,5.6246808446087,257.0618653678326,184.5489015260396,55.879422770960005,0.0,0,,,,,,
122.99833631554476,5.642496080614543,257.8902023425255,185.10838771957023,56.33726468529778,0.0,0,,,,,,
123.99791970095832,5.66016712160945,258.7702565008657,185.58238310223027,56.79510659963555,0.0,0,,,,,,
124.99750308637186,5.677696283056663,259.69323463261014,185.96615166883822,57.252948513973315,0.0,0,,,,,,
125.99708647178545,5.695085825091572,260.64991464536257,186.25585893073355,57.7107904283111,0.0,0,,,,,,
126.99666985719901,5.712337954270525,261.63073770867186,186.44861022871987,58.16863234264887,0.0,0,,,,,,
127.99625324261258,5.729454825251088,262.62590376270646,186.54247965554285,58.62647425698665,0.0,0,,,,,,
128.99583662802615,5.746438542406948,263.6254694372126,186.53652929891874,59.084316171324424,0.0,0,,,,,,
129.9954200134397,5.763291161380486,264.61944740238306,186.43081861284404,59.542158085662194,0.0,0,,,,,,
130.9950033988533,5.7800047108462325,265.59790615895537,186.22640382355067,60.071379118045925,0.2550921902102428,0,,,,,,
131.9945867842669,5.796571661872861,266.55106927046927,185.92532737604273,60.600600150429656,0.5101843804204856,0,,,,,,
132.99417016968042,5.812994563797715,267.4694130461883,185.53059752666107,61.12982118281336,0.765276570630714,0,,,,,,
133.993753555094,5.82927590003215,268.3437616986697,185.04615828558033,61.65904221519709,1.0203687608409568,0,,,,,,
134.99333694050753,5.845418090315231,269.165379025199,184.47685000956315,62.18826324758079,1.2754609510511852,0,,,,,,
135.99292032592112,5.861423492871958,269.92605569704017,183.82836103871512,62.71748427996452,1.530553141261428,0,,,,,,
136.99250371133468,5.8772944064807975,270.6181912843344,183.10717086047106,63.24670531234824,1.7856453314716636,0,,,,,,
137.99208709674826,5.893033072455096,271.23487019708307,182.32048536869814,63.77592634473197,2.0407375216819066,0,,,,,,
138.99167048216182,5.9086416765426035,271.7699307834369,181.47616486478657,64.30514737711569,2.295829711892142,0,,,,,,
139.9912538675754,5.924122350747163,272.21802689488464,180.58264552011613,64.83436840949942,2.550921902102385,0,,,,,,
140.99083725298897,5.939477175076353,272.57468130320154,179.64885508462058,65.36358944188314,2.8060140923126204,0,,,,,,
141.99083725298897,5.954714501715917,272.78680456522886,178.67161216614693,65.89303104736236,3.0612126019444066,0,,,,,,
142.99083725298897,5.969829888379384,272.9989278272562,177.69436924767328,66.42247265284158,3.316411111576193,0,,,,,,
143.99083725298897,5.984825271273493,273.2110510892835,176.71712632919963,66.9519142583208,3.5716096212079798,0,,,,,,
144.99083725298897,5.999702540852543,273.4231743513108,175.73988341072598,67.48135586380002,3.8268081308397663,0,,,,,,
145.99083725298897,6.014463543248626,273.63529761333814,174.76264049225233,68.01079746927924,4.082006640471553,0,,,,,,
146.99083725298897,6.029110081646413,273.84742087536546,173.78539757377868,68.54023907475846,4.3372051501033395,0,,,,,,
147.99083725298897,6.043643917605048,274.0595441373928,172.80815465530503,69.06968068023768,4.592403659735126,0,,,,,,
148.99083725298897,6.0580667723295605,274.2716673994201,171.83091173683138,69.5991222857169,4.847602169366913,0,,,,,,
149.99083725298897,6.072380327894116,274.4837906614474,170.85366881835773,70.12856389119612,5.102800678998699,0,,,,,,
150.99083725298897,6.086586228419257,274.69591392347473,169.87642589988408,70.65800549667534,5.357999188630486,0,,,,,,
151.99083725298897,6.1006860812052075,274.90803718550205,168.89918298141043,71.18744710215456,5.613197698262272,0,,,,,,
152.99083725298897,6.114681457823186,275.1201604475294,167.92194006293678,71.71688870763379,5.868396207894059,0,,,,,,
153.99083725298897,6.1285738951665865,275.3322837095567,166.94469714446313,72.246330313113,6.123594717525846,0,,,,,,
154.99083725298897,6.142364896463786,275.544406971584,165.96745422598948,72.77577191859223,6.378793227157632,0,,,,,,
155.99083725298897,6.156055932254238,275.75653023361133,164.99021130751584,73.30521352407145,6.633991736789419,0,,,,,,
156.99083725298897,6.169648441329451,275.96865349563865,164.0129683890422,73.83465512955067,6.889190246421205,0,,,,,,
157.99083725298897,6.183143831640346,276.18077675766597,163.03572547056854,74.36409673502989,7.144388756052992,0,,,,,,
158.99083725298897,6.196543481172431,276.3929000196933,162.0584825520949,74.89353834050911,7.3995872656847785,0,,,,,,
159.99083725298897,6.209848738790147,276.6050232817206,161.08123963362124,75.42297994598833,7.654785775316565,0,,,,,,
160.99083725298897,6.223060925051689,276.8171465437479,160.1039967151476,75.95242155146755,7.909984284948352,0,,,,,,
161.99083725298897,6.236181332995517,277.02926980577524,159.12675379667394,76.48186315694677,8.165182794580138,0,,,,,,
162.99083725298897,6.249211228899747,277.24139306780256,158.1495108782003,77.011304762426,8.420381304211924,0,,,,,,
163.99083725298897,6.262151853015524,277.4535163298299,157.17226795972664,77.54074636790521,8.67557981384371,0,,,,,,
164.99083725298897,6.275004420275441,277.6656395918572,156.195025041253,78.07018797338444,8.930778323475495,0,,,,,,
165.99083725298897,6.287770120978022,277.8777628538845,155.21778212277934,78.59962957886366,9.185976833107281,0,,,,,,
166.99083725298897,6.300450121449227,278.08988611591184,154.2405392043057,79.12907118434288,9.441175342739067,0,,,,,,
167.99083725298897,6.313045564681901,278.30200937793916,153.26329628583204,79.6585127898221,9.696373852370852,0,,,,,,
168.99083725298897,6.325557570954043,278.5141326399665,152.2860533673584,80.18795439530132,9.951572362002638,0,,,,,,
169.99083725298897,6.3379872384267335,278.7262559019938,151.30881044888474,80.71739600078054,10.206770871634424,0,,,,,,
170.99083725298897,6.350335643722513,278.9383791640211,150.3315675304111,81.24683760625976,10.46196938126621,0,,,,,,
171.99083725298897,6.36260384248498,279.15050242604843,149.35432461193744,81.77627921173898,10.717167890897995,0,,,,,,
172.99083725298897,6.374792869920329,279.36262568807575,148.3770816934638,82.3057208172182,10.972366400529781,0,,,,,,
173.99083725298897,6.386903741321534,279.57474895010307,147.39983877499014,82.83516242269742,11.227564910161567,0,,,,,,
174.99083725298897,6.398937452575822,279.7868722121304,146.4225958565165,83.36460402817664,11.482763419793352,0,,,,,,
175.99083725298897,6.410894980656096,279.9989954741577,145.44535293804284,83.89404563365586,11.737961929425138,0,,,,,,
176.99083725298897,6.422807255403254,280.211118736185,144.4681100195692,84.0,11.993160439056924,0,,,,,,
177.99083725298897,6.434712017308016,280.42324199821235,143.49086710109555,84.0,12.24835894868871,0,,,,,,
178.99083725298897,6.4466167792127775,280.63536526023967,142.5136241826219,84.0,12.503557458320495,0,,,,,,
179.99083725298897,6.458521541117539,280.847488522267,141.53638126414825,84.0,12.75875596795228,0,,,,,,
180.99083725298897,6.470426303022301,281.0596117842943,140.5591383456746,84.0,13.013954477584067,0,,,,,,
181.99083725298897,6.482331064927063,281.2717350463216,139.58189542720095,84.0,13.269152987215852,0,,,,,,
182.99083725298897,6.494235826831825,281.48385830834894,138.6046525087273,84.0,13.524351496847638,0,,,,,,
183.99083725298897,6.506140588736587,281.69598157037626,137.62740959025365,84.0,13.779550006479424,0,,,,,,
184.99083725298897,6.518045350641349,281.9081048324036,136.65016667178,84.0,14.03474851611121,0,,,,,,
185.99083725298897,6.529950112546111,282.1202280944309,135.67292375330635,84.0,14.289947025742995,0,,,,,,
