Distance (in),Time (s),X (in),Y (in),Velocity (in/s),Orientation (deg),Touch,Way X (in),Way Y (in),Way Velocity (in/s),Way Orientation (deg),Way Turn Radius (in),Touch this Point
0.0,0.0,180.0,162.0,0.0,0.0,0,180.0,162.0,0.0,0.0,3.0,0.0
1.0,0.16666666666666666,181.0,162.0,12.0,0.0,0,216.2,162.0,108.0,0.0,3.0,0
2.0,0.25,182.0,162.0,12.0,0.0,0,257.81,162.0,108.0,0.0,10.0,0.0
3.0,0.3333333333333333,183.0,162.0,12.0,0.0,0,330.0,164.0,84.0,0.0,30.0,0
4.0,0.41666666666666663,184.0,162.0,12.0,0.0,0,314.45,104.23,60.0,0.0,30.0,0.0
5.0,0.49999999999999994,185.0,162.0,12.0,0.0,0,246.97,105.44,60.0,0.0,30.0,0.0
6.0,0.5774651059938091,186.0,162.0,13.818076078793933,0.0,0,253.0,146.81,60.0,0.0,20.0,0
7.0,0.6442672366097733,187.0,162.0,16.121088758592922,0.0,0,287.0,163.0,60.0,0.0,30.0,0
8.0,0.7021624164769422,188.0,162.0,18.42410143839191,0.0,0,338.85,140.8,60.0,0.0,30.0,0
9.0,0.7532463987126796,189.0,162.0,20.7271141181909,0.0,0,385.35,156.0,60.0,0.0,30.0,0
10.0,0.7989531196604446,190.0,162.0,23.03012679798989,0.0,0,440.0,192.0,60.0,0.0,35.0,0
11.0,0.8403068195655653,191.0,162.0,25.33313947778888,0.0,0,384.0,240.0,60.0,0.0,35.0,0
12.0,0.8780645455658929,192.0,162.0,27.63615215758787,0.0,0,323.0,215.0,60.0,0.0,35.0,0
13.0,0.9128016534861942,193.0,162.0,29.93916483738686,0.0,0,346.0,164.0,84.0,0.0,35.0,0
14.0,0.9449656423012881,194.0,162.0,32.242177517185844,0.0,0,385.0,125.0,84.0,0.0,45.0,0
15.0,0.9749114249912031,195.0,162.0,34.545190196984834,0.0,0,435.98,103.0,60.0,0.0,35.0,0
16.0,1.0029252217011235,196.0,162.0,36.84820287678382,0.0,0,475.49,121.93,60.0,0.0,25.0,0
17.0,1.0292412125498367,197.0,162.0,39.15121555658281,0.0,0,465.0,160.5,60.0,0.0,30.0,0
18.0,1.0540534324929092,198.0,162.0,41.4542282363818,0.0,0,432.65,166.69,84.0,0.0,40.0,0
19.0,1.0775244513579776,199.0,162.0,43.75724091618079,0.0,0,367.64,170.69,108.0,0.0,30.0,0
20.0,1.0997918282299657,200.0,162.0,46.06025359597978,0.0,0,270.0,190.0,144.0,0.0,60.0,0.0
21.0,1.1209729915960032,201.0,162.0,48.36326627577877,0.0,0,190.0,190.0,144.0,0.0,3.0,0.0
22.0,1.1411689845729225,202.0,162.0,50.66627895557776,0.0,0,80.0,190.0,0.0,0.0,3.0,0.0
23.0,1.1604673778619787,203.0,162.0,52.96929163537675,0.0,0,,,,,,
24.0,1.178944562925969,204.0,162.0,55.27230431517574,0.0,0,,,,,,
25.0,1.1966675771710207,205.0,162.0,57.57531699497473,0.0,0,,,,,,
26.0,1.2136955712495998,206.0,162.0,59.87832967477372,0.0,0,,,,,,
27.0,1.2300809995138928,207.0,162.0,62.181342354572706,0.0,0,,,,,,
28.0,1.2458705940231207,208.0,162.0,64.48435503437169,0.0,0,,,,,,
29.0,1.2611061676723758,209.0,162.0,66.78736771417067,0.0,0,,,,,,
30.0,1.2758252811979272,210.0,162.0,69.09038039396965,0.0,0,,,,,,
31.0,1.290061800837395,211.0,162.0,71.39339307376864,0.0,0,,,,,,
32.0,1.3038463674724352,212.0,162.0,73.69640575356762,0.0,0,,,,,,
33.0,1.317206793595628,213.0,162.0,75.9994184333666,0.0,0,,,,,,
34.0,1.3301684010285764,214.0,162.0,78.30243111316558,0.0,0,,,,,,
35.0,1.3427543096953523,215.0,162.0,80.60544379296456,0.0,0,,,,,,
36.0,1.3549856857236273,216.0,162.0,82.90845647276355,0.0,0,,,,,,
36.19999999999999,1.357395260515113,216.2,162.0,83.09593625802242,0.0,0,,,,,,
37.19999999999999,1.3693620451647428,217.2,162.0,84.0333351843168,0.0,0,,,,,,
38.19999999999999,1.3811960797435778,218.2,162.0,84.97073411061118,0.0,0,,,,,,
39.19999999999999,1.3929002771869834,219.2,162.0,85.90813303690555,0.0,0,,,,,,
40.19999999999999,1.4044774555930033,220.2,162.0,86.84553196319993,0.0,0,,,,,,
41.19999999999999,1.4159303422950245,221.2,162.0,87.78293088949431,0.0,0,,,,,,
42.19999999999999,1.427261577718145,222.2,162.0,88.72032981578869,0.0,0,,,,,,
43.19999999999999,1.438473719032886,223.2,162.0,89.65772874208307,0.0,0,,,,,,
44.19999999999999,1.4495692436188916,224.2,162.0,90.59512766837744,0.0,0,,,,,,
45.19999999999999,1.4605505523503564,225.2,162.0,91.53252659467182,0.0,0,,,,,,
46.19999999999999,1.4714199727140755,226.2,162.0,92.4699255209662,0.0,0,,,,,,
47.19999999999999,1.4821797617702503,227.2,162.0,93.40732444726058,0.0,0,,,,,,
48.19999999999999,1.4928321089654657,228.2,162.0,94.34472337355496,0.0,0,,,,,,
49.19999999999999,1.503379138806613,229.2,162.0,95.28212229984933,0.0,0,,,,,,
50.19999999999999,1.5138229134039236,230.2,162.0,96.21952122614371,0.0,0,,,,,,
51.19999999999999,1.5241654348907292,231.2,162.0,97.15692015243809,0.0,0,,,,,,
52.19999999999999,1.5344086477270487,232.2,162.0,98.09431907873247,0.0,0,,,,,,
53.19999999999999,1.5445544408936316,233.2,162.0,99.03171800502685,0.0,0,,,,,,
54.19999999999999,1.5546046499826522,234.2,162.0,99.96911693132122,0.0,0,,,,,,
55.19999999999999,1.5645610591908385,235.2,162.0,100.9065158576156,0.0,0,,,,,,
56.19999999999999,1.5744254032204505,236.2,162.0,101.84391478390998,0.0,0,,,,,,
57.19999999999999,1.5841993690931755,237.2,162.0,102.78131371020436,0.0,0,,,,,,
58.19999999999999,1.5938845978816798,238.2,162.0,103.71871263649874,0.0,0,,,,,,
59.19999999999999,1.6034826863632672,239.2,162.0,104.65611156279311,0.0,0,,,,,,
60.19999999999999,1.6129951885998062,240.2,162.0,105.59351048908749,0.0,0,,,,,,
61.19999999999999,1.6224236174478412,241.2,162.0,106.53090941538187,0.0,0,,,,,,
62.19999999999999,1.6317694460025536,242.2,162.0,107.46830834167625,0.0,0,,,,,,
63.19999999999999,1.641051553498513,243.2,162.0,108.0,0.0,0,,,,,,
64.19999999999999,1.6503108127577724,244.2,162.0,108.0,0.0,0,,,,,,
65.19999999999999,1.6595700720170317,245.2,162.0,108.0,0.0,0,,,,,,
66.19999999999999,1.668829331276291,246.2,162.0,108.0,0.0,0,,,,,,
67.19999999999999,1.6780885905355503,247.2,162.0,108.0,0.0,0,,,,,,
68.19999999999999,1.6873478497948096,248.2,162.0,108.0,0.0,0,,,,,,
69.19999999999999,1.6966071090540689,249.2,162.0,108.0,0.0,0,,,,,,
70.19999999999999,1.7058663683133282,250.2,162.0,108.0,0.0,0,,,,,,
71.19999999999999,1.7151256275725875,251.2,162.0,108.0,0.0,0,,,,,,
72.19999999999999,1.7243848868318468,252.2,162.0,108.0,0.0,0,,,,,,
73.19999999999999,1.733644146091106,253.2,162.0,108.0,0.0,0,,,,,,
74.19999999999999,1.7429034053503654,254.2,162.0,108.0,0.0,0,,,,,,
75.19999999999999,1.7521626646096247,255.2,162.0,108.0,0.0,0,,,,,,
76.19999999999999,1.761421923868884,256.2,162.0,108.0,0.0,0,,,,,,
77.19999999999999,1.7706811831281433,257.2,162.0,108.0,0.0,0,,,,,,
77.81,1.7763356141282038,257.81,162.0,107.75999423937463,0.0,0,,,,,,
78.81000000000003,1.7856324681256501,258.80961644646186,162.02769404201308,107.36654217277567,0.0,0,,,,,,
79.81000000000006,1.7949634536215904,259.8092328929237,162.05538808402616,106.9730901061767,0.0,0,,,,,,
80.81000000000009,1.804328822153127,260.8088493393856,162.08308212603924,106.57963803957773,0.0,0,,,,,,
81.81000000000012,1.8137288280482562,261.80846578584743,162.11077616805233,106.18618597297876,0.0,0,,,,,,
82.81000000000014,1.8231637284673088,262.8080822323093,162.1384702100654,105.7927339063798,0.0,0,,,,,,
83.81000000000017,1.8326337834451634,263.80769867877115,162.1661642520785,105.39928183978083,0.0,0,,,,,,
84.8100000000002,1.8421392559342493,264.807315125233,162.19385829409157,105.00582977318186,0.0,0,,,,,,
85.81000000000023,1.8516804118483563,265.80693157169486,162.22155233610465,104.61237770658289,0.0,0,,,,,,
86.81000000000026,1.8612575201072696,266.8065480181567,162.24924637811773,104.21892563998392,0.0,0,,,,,,
87.81000000000029,1.8708708526822497,267.8061644646186,162.2769404201308,103.82547357338495,0.0,0,,,,,,
88.81000000000031,1.8805206846423745,268.80578091108043,162.3046344621439,103.43202150678599,0.0,0,,,,,,
89.81000000000034,1.8902072942017656,269.8053973575423,162.33232850415698,103.03856944018702,0.0,0,,,,,,
90.81000000000037,1.8999309627677168,270.80501380400415,162.36002254617006,102.64511737358805,0.0,0,,,,,,
91.8100000000004,1.9096919749897483,271.804630250466,162.38771658818314,102.25166530698908,0.0,0,,,,,,
92.81000000000043,1.9194906188096055,272.80424669692786,162.41541063019622,101.85821324039011,0.0,0,,,,,,
93.81000000000046,1.9293271855122247,273.8038631433897,162.4431046722093,101.46476117379115,0.0,0,,,,,,
94.81000000000049,1.9392019697776912,274.8034795898516,162.47079871422238,101.07130910719218,0.0,0,,,,,,
95.81000000000051,1.9491152697342076,275.80309603631343,162.49849275623546,100.67785704059321,0.0,0,,,,,,
96.81000000000054,1.9590673870121016,276.8027124827753,162.52618679824855,100.28440497399424,0.0,0,,,,,,
97.81000000000057,1.9690586267988945,277.80232892923715,162.55388084026163,99.89095290739527,0.0,0,,,,,,
98.8100000000006,1.979089297895456,278.801945375699,162.5815748822747,99.4975008407963,0.0,0,,,,,,
99.81000000000063,1.9891597127732714,279.80156182216086,162.6092689242878,99.10404877419734,0.0,0,,,,,,
100.81000000000066,1.9992701876328496,280.8011782686227,162.63696296630087,98.71059670759837,0.0,0,,,,,,
101.81000000000068,2.0094210424632943,281.8007947150846,162.66465700831395,98.3171446409994,0.0,0,,,,,,
102.81000000000071,2.019612601103073,282.80041116154644,162.69235105032703,97.92369257440043,0.0,0,,,,,,
103.81000000000074,2.029845191302007,283.8000276080083,162.72004509234011,97.53024050780147,0.0,0,,,,,,
104.81000000000077,2.040119144784515,284.79964405447015,162.7477391343532,97.1367884412025,0.0,0,,,,,,
105.8100000000008,2.0504347973141392,285.799260500932,162.77543317636628,96.74333637460353,0.0,0,,,,,,
106.81000000000083,2.0607924887593896,286.79887694739386,162.80312721837936,96.34988430800456,0.0,0,,,,,,
107.81000000000085,2.0711925631609303,287.7984933938557,162.83082126039244,95.9564322414056,0.0,0,,,,,,
108.81000000000088,2.08163536880015,288.7981098403176,162.85851530240552,95.56298017480663,0.0,0,,,,,,
109.81000000000091,2.0921212582691457,289.79772628677944,162.8862093444186,95.16952810820766,0.0,0,,,,,,
110.80983215448876,2.102648817581165,290.79737535456115,162.90534252060417,94.77614208077233,0.0,0,,,,,,
111.80978585883547,2.113221452197072,291.7972464233353,162.892487301231,94.38270822929384,0.0,0,,,,,,
112.80973956318215,2.123838250836733,292.7961336316505,162.8463163590601,93.98927437781536,0.0,0,,,,,,
113.80969326752884,2.1344995840118903,293.7929272075932,162.76688099038833,93.59584052633687,0.0,0,,,,,,
114.80964697187557,2.1452058269165115,294.78651970529273,162.65426944856443,93.20240667485837,0.0,0,,,,,,
115.80960067622227,2.155957359506013,295.7758072353026,162.50860684593863,92.80897282337988,0.0,0,,,,,,
116.80955438056898,2.166754566578173,296.75969069103087,162.33005501486187,92.41553897190138,0.0,0,,,,,,
117.80950808491569,2.177597837855767,297.73707696985673,162.11881232788872,92.02210512042289,0.0,0,,,,,,
118.80946178926237,2.188487568070973,298.7068801875763,161.87511347738382,91.62867126894442,0.0,0,,,,,,
119.80941549360908,2.199424157051596,299.66802288482916,161.59922921477678,91.23523741746592,0.0,0,,,,,,
120.8093691979558,2.2104080098091505,300.6194372241643,161.29146604975506,90.84180356598742,0.0,0,,,,,,
121.8093229023025,2.221439536628859,301.5600661764165,160.9521659097292,90.44836971450893,0.0,0,,,,,,
122.80927660664918,2.2325191531616113,302.4888646950745,160.58170575994865,90.05493586303045,0.0,0,,,,,,
123.80923031099594,2.243647280517937,303.4048008773361,160.18049718469024,89.66150201155193,0.0,0,,,,,,
124.80918401534264,2.254824345364039,304.3068571105606,159.74898592998483,89.26806816007344,0.0,0,,,,,,
125.80913771968936,2.2660507800199587,305.1940312028453,159.2876514083895,88.87463430859493,0.0,0,,,,,,
126.80909142403607,2.2773270225599087,306.0653374964683,158.79700616635654,88.48120045711644,0.0,0,,,,,,
127.80904512838276,2.288653516914846,306.9198079629629,158.27759531478992,88.08776660563795,0.0,0,,,,,,
128.80899883272946,2.300030712977341,307.7564932786049,157.7299959234227,87.69433275415946,0.0,0,,,,,,
129.80895253707618,2.3114590667088026,308.57446387911915,157.1548163796878,87.30089890268096,0.0,0,,,,,,
130.80890624142287,2.322939040249125,309.372810992433,156.55269571279442,86.90746505120246,0.0,0,,,,,,
131.80885994576954,2.334471102028823,310.1506476483298,155.92430288376158,86.51403119972399,0.0,0,,,,,,
132.80881365011626,2.346055726883724,310.90710966388,155.27033604219662,86.12059734824548,0.0,0,,,,,,
133.80876735446296,2.3576933961722815,311.6413566035554,154.59152175064548,85.72716349676699,0.0,0,,,,,,
134.80872105880968,2.369384597895592,312.35257271295995,153.88861417737562,85.33372964528849,0.0,0,,,,,,
135.80867476315638,2.3811298268201804,313.03996782513985,153.16239425848886,84.94029579381,0.0,0,,,,,,
136.80862846750307,2.3929295846036394,313.7027782384652,152.41366883029497,84.5468619423315,0.0,0,,,,,,
137.80858217184976,2.4047843799231967,314.3402675651091,151.64326973290986,84.15342809085301,0.0,0,,,,,,
138.80853587619646,2.416704071469142,314.9517275491804,150.85205288607443,83.62838077430266,0.0,0,,,,,,
139.80848958054315,2.428698834540491,315.53647885360186,150.04089733822056,83.1033334577523,0.0,0,,,,,,
140.80844328488985,2.4407696207480036,316.09387181485926,149.2107042898412,82.57828614120194,0.0,0,,,,,,
141.80839698923657,2.452917399911856,316.62328716478294,148.36239609224913,82.05323882465156,0.0,0,,,,,,
142.80835069358326,2.4651431605292147,317.1241367185597,147.49691522283706,81.5281915081012,0.0,0,,,,,,
143.80830439793,2.477447910256917,317.59586402821134,146.61522323797752,81.00314419155082,0.0,0,,,,,,
144.80825810227668,2.489832676409842,318.0379450008124,145.71829970472578,80.47809687500046,0.0,0,,,,,,
145.8082118066234,2.502298506475596,318.44988848076207,144.80714111251274,79.95304955845008,0.0,0,,,,,,
146.80816551097013,2.514846468646147,318.8312367954622,143.8827597660371,79.42800224189969,0.0,0,,,,,,
147.80811921531682,2.527477652367097,319.1815662637949,142.9461826605864,78.90295492534933,0.0,0,,,,,,
148.80807291966352,2.540193168905285,319.50048766683625,141.99845034103683,78.37790760879898,0.0,0,,,,,,
149.80802662401024,2.5529941519354655,319.78764668028134,141.04061574579924,77.8528602922486,0.0,0,,,,,,
150.80798032835693,2.565881758146841,320.04272426810167,140.07374303699604,77.32781297569824,0.0,0,,,,,,
151.80793403270363,2.5788571678702508,320.26543703699684,139.09890641816818,76.80276565914788,0.0,0,,,,,,
152.80788773705032,2.591921585726877,320.4555375512468,138.11718894082625,76.27771834259752,0.0,0,,,,,,
153.80784144139702,2.6050762412993493,320.61281460761467,137.12968130117127,75.75267102604717,0.0,0,,,,,,
154.8077951457437,2.6183223898261914,320.73709346999595,136.13748062832232,75.22762370949681,0.0,0,,,,,,
155.80774885009043,2.6316613129205844,320.8282360635512,135.14168926539696,74.70257639294643,0.0,0,,,,,,
156.80770255443713,2.645094319314479,320.8861411281083,134.14341354479905,74.17752907639607,0.0,0,,,,,,
157.80765625878385,2.6586227456291387,320.91074433066393,133.14376255907416,73.65248175984568,0.0,0,,,,,,
158.80760996313055,2.6722479571732407,320.90201833685734,132.1438469286989,73.12743444329533,0.0,0,,,,,,
159.80756366747724,2.6859713487697383,320.8599728413395,131.14477756817215,72.60238712674497,0.0,0,,,,,,
160.80751737182396,2.6997943456127245,320.7846545570022,130.14766445178003,72.07733981019459,0.0,0,,,,,,
161.80747107617069,2.7137184041556215,320.6761471630796,129.15361538040537,71.5522924936442,0.0,0,,,,,,
162.8074247805174,2.727745013032078,320.5345712121796,128.16373475075173,71.02724517709382,0.0,0,,,,,,
163.8073784848641,2.7418756940110285,320.36008399634966,127.1791223283496,70.50219786054346,0.0,0,,,,,,
164.8097157298104,2.7561460645135303,320.15062281730076,126.19891522417316,69.97589901445701,0.0,0,,,,,,
165.8096694341571,2.7704898500387283,319.8530230160558,125.24427300368654,69.45085169790666,0.0,0,,,,,,
166.80962313850378,2.7849424858037364,319.52377301790193,124.30007924732486,68.9258043813563,0.0,0,,,,,,
167.80957684285048,2.799505636498203,319.1632386222983,123.36738296212617,68.40075706480594,0.0,0,,,,,,
168.80953054719717,2.8141810052941727,318.77182038592713,122.44722038134343,67.87570974825559,0.0,0,,,,,,
169.80948425154386,2.8289703350414195,318.3499531776721,121.54061381318071,67.35066243170523,0.0,0,,,,,,
170.80943795589056,2.8438754095095566,317.8981056954753,120.64857050500049,66.82561511515487,0.0,0,,,,,,
171.80939166023728,2.8588980546791323,317.4167799456101,119.77208152426348,66.30056779860449,0.0,0,,,,,,
172.809345364584,2.874040140084052,316.90651068494793,118.91212065744452,65.7755204820541,0.0,0,,,,,,
173.80929906893073,2.889303580207795,316.36786482683914,118.06964332814779,65.25047316550372,0.0,0,,,,,,
174.8092527732774,2.904690335936031,315.80144081126747,117.24558553562332,64.72542584895338,0.0,0,,,,,,
175.8092064776241,2.9202024160683973,315.2078679399782,116.4408628148641,64.20037853240302,0.0,0,,,,,,
176.8091601819708,2.9358418788923424,314.587805677319,115.65636921943921,63.675331215852644,0.0,0,,,,,,
177.80911388631753,2.9516108338221296,313.94194291756946,114.89297632819289,63.150283899302266,0.0,0,,,,,,
178.8090675906642,2.9675114431062606,313.2709972195739,114.15153227691327,62.62523658275192,0.0,0,,,,,,
179.80902129501092,2.9835459236067754,312.5757140095275,113.4328608160466,62.10018926620154,0.0,0,,,,,,
180.8089749993576,2.9997165486540847,311.85686575280175,112.73776039550361,61.57514194965119,0.0,0,,,,,,
181.8089287037043,3.0160256499812315,311.11525109572904,112.06700327757518,61.05009463310081,0.0,0,,,,,,
182.808882408051,3.032475619741675,310.3516939783001,111.42133467894251,60.52504731655045,0.0,0,,,,,,
183.80883611239773,3.049068912614988,309.56704271875964,110.80147194273528,60.00000000000007,0.0,0,,,,,,
184.8087898167444,3.0657348076874325,308.76216907111814,110.20810374155754,60.00000000000007,0.0,0,,,,,,
185.8087435210911,3.082400702759877,307.9379672566256,109.64188931236673,60.00000000000007,0.0,0,,,,,,
186.8086972254378,3.0990665978323224,307.0953529702846,109.10345772405606,60.00000000000007,0.0,0,,,,,,
187.80865092978453,3.1157324929047676,306.23526236350557,108.59340717855372,60.00000000000007,0.0,0,,,,,,
188.80860463413123,3.1323983879772124,305.3586510040349,108.11230434621567,60.00000000000007,0.0,0,,,,,,
189.80855833847795,3.1490642830496576,304.4664928143112,107.66068373625014,60.00000000000007,0.0,0,,,,,,
190.80851204282462,3.165730178122102,303.55977898942956,107.23904710287357,60.00000000000007,0.0,0,,,,,,
191.80846574717137,3.1823960731945475,302.6395168959154,106.84786288785752,60.00000000000007,0.0,0,,,,,,
192.80841945151806,3.1990619682669923,301.70672895253244,106.48756570008598,60.00000000000007,0.0,0,,,,,,
193.80837315586479,3.2157278633394375,300.76245149436653,106.15855583270135,60.00000000000007,0.0,0,,,,,,
194.80832686021145,3.232393758411882,299.8077336214492,105.86119881837544,60.00000000000007,0.0,0,,,,,,
195.80828056455815,3.2490596534843266,298.84363603319855,105.5958250231997,60.00000000000007,0.0,0,,,,,,
196.8082342689049,3.265725548556772,297.87122984997376,105.36272927964569,60.00000000000007,0.0,0,,,,,,
197.80818797325156,3.2823914436292165,296.89159542305157,105.16217055900391,60.00000000000007,0.0,0,,,,,,
198.80814167759826,3.2990573387016613,295.90582113434675,104.99437168366444,60.00000000000007,0.0,0,,,,,,
199.80809538194495,3.315723233774106,294.9150021872112,104.85951907955946,60.00000000000007,0.0,0,,,,,,
200.80804908629167,3.3323891288465513,293.92023938965383,104.75776256904255,60.00000000000007,0.0,0,,,,,,
201.8080027906384,3.3490550239189965,292.9226379313339,104.6892152044348,60.00000000000007,0.0,0,,,,,,
202.8079564949851,3.365720918991441,291.92330615568613,104.65395314242272,60.00000000000007,0.0,0,,,,,,
203.80795649498506,3.3823875856581074,290.9234668815926,104.67188149929369,60.00000000000007,0.0,0,,,,,,
204.80795649498504,3.3990542523247735,289.9236276074991,104.68980985616466,60.00000000000007,0.0,0,,,,,,
205.807956494985,3.4157209189914397,288.9237883334056,104.70773821303563,60.00000000000007,0.0,0,,,,,,
206.80795649498498,3.432387585658106,287.92394905931206,104.7256665699066,60.00000000000007,0.0,0,,,,,,
207.80795649498495,3.449054252324772,286.92410978521855,104.74359492677756,60.00000000000007,0.0,0,,,,,,
208.80795649498492,3.465720918991438,285.92427051112503,104.76152328364853,60.00000000000007,0.0,0,,,,,,
