Distance (in),Time (s),X (in),Y (in),Velocity (in/s),Orientation (deg),Touch,Way X (in),Way Y (in),Way Velocity (in/s),Way Orientation (deg),Way Turn Radius (in),Touch this Point
0,0,180,162,0,0,0,180,162,0,0,3,0
1,0.166666667,180.9999174,162.0128508,12,0,0,257.81,163,96,0,10,0
2,0.25,181.9998349,162.0257015,12,0,0,330,156.05,96,0,30,0
3,0.333333333,182.9997523,162.0385523,12,0,0,314.45,104.23,96,0,30,0
4,0.416666667,183.9996697,162.051403,12,0,0,246.97,105.44,96,0,30,0
5,0.5,184.9995871,162.0642538,12,0,0,258.42,145.81,96,0,15,0
6,0.583333333,185.9995046,162.0771045,12,0,0,285,165,96,0,30,0
7,0.666666667,186.999422,162.0899553,12,0,0,384.35,156.65,96,0,30,0
8,0.75,187.9993394,162.1028061,12,0,0,410,191,96,0,30,0
9,0.833333333,188.9992568,162.1156568,12,0,0,385.23,223,96,0,16,0
10,0.915513653,189.9991743,162.1285076,12.33672701,0,0,330.22,214.77,96,0,30,0
11,0.992712488,190.9990917,162.1413583,13.57039971,0,0,390,132,96,0,10,0
12,1.063198381,191.9990091,162.1542091,14.80407241,0,0,430.98,103.51,96,0,30,0
13,1.128045402,192.9989265,162.1670598,16.03774511,0,0,475.49,123.93,96,0,25,0
14,1.18808894,193.998844,162.1799106,17.27141781,0,0,460.54,154.59,96,0,30,0
15,1.243991545,194.9987614,162.1927614,18.50509051,0,0,432.65,167.69,96,0,30,0
16,1.29628753,195.9986788,162.2056121,19.73876321,0,0,367.64,157.68,96,0,30,0
17,1.345414061,196.9985962,162.2184629,20.97243592,0,0,270,167,96,0,50,0
18,1.391733362,197.9985137,162.2313136,22.20610862,0,0,157.2,162,144,0,3,0
19,1.435548917,198.9984311,162.2441644,23.43978132,0,0,120,162,0,0,3,0
20,1.477117521,199.9983485,162.2570151,24.67345402,0,0,,,,,,
21,1.516658387,200.9982659,162.2698659,25.90712672,0,0,,,,,,
22,1.554360144,201.9981834,162.2827167,27.14079942,0,0,,,,,,
23,1.590386267,202.9981008,162.2955674,28.37447212,0,0,,,,,,
24,1.624879363,203.9980182,162.3084182,29.60814482,0,0,,,,,,
25,1.657964578,204.9979356,162.3212689,30.84181752,0,0,,,,,,
26,1.689752334,205.9978531,162.3341197,32.07549022,0,0,,,,,,
27,1.720340552,206.9977705,162.3469704,33.30916292,0,0,,,,,,
28,1.74981647,207.9976879,162.3598212,34.54283563,0,0,,,,,,
29,1.778258146,208.9976053,162.372672,35.77650833,0,0,,,,,,
30,1.805735698,209.9975228,162.3855227,37.01018103,0,0,,,,,,
31,1.832312346,210.9974402,162.3983735,38.24385373,0,0,,,,,,
32,1.858045291,211.9973576,162.4112242,39.47752643,0,0,,,,,,
33,1.882986453,212.997275,162.424075,40.71119913,0,0,,,,,,
34,1.907183103,213.9971925,162.4369257,41.94487183,0,0,,,,,,
35,1.9306784,214.9971099,162.4497765,43.17854453,0,0,,,,,,
36,1.953511859,215.9970273,162.4626273,44.41221723,0,0,,,,,,
37,1.975719743,216.9969447,162.475478,45.64588993,0,0,,,,,,
38,1.997335416,217.9968622,162.4883288,46.87956263,0,0,,,,,,
39,2.018389644,218.9967796,162.5011795,48.11323534,0,0,,,,,,
40,2.038910853,219.996697,162.5140303,49.34690804,0,0,,,,,,
41,2.058925366,220.9966144,162.526881,50.58058074,0,0,,,,,,
42,2.078457601,221.9965319,162.5397318,51.81425344,0,0,,,,,,
43,2.097530255,222.9964493,162.5525826,53.04792614,0,0,,,,,,
44,2.116164456,223.9963667,162.5654333,54.28159884,0,0,,,,,,
45,2.134379912,224.9962842,162.5782841,55.51527154,0,0,,,,,,
46,2.152195028,225.9962016,162.5911348,56.74894424,0,0,,,,,,
47,2.169627023,226.996119,162.6039856,57.98261694,0,0,,,,,,
48,2.186692028,227.9960364,162.6168364,59.21628964,0,0,,,,,,
49,2.203405178,228.9959539,162.6296871,60.44996235,0,0,,,,,,
50,2.219780688,229.9958713,162.6425379,61.68363505,0,0,,,,,,
51,2.235831931,230.9957887,162.6553886,62.91730775,0,0,,,,,,
52,2.2515715,231.9957061,162.6682394,64.15098045,0,0,,,,,,
53,2.267011267,232.9956236,162.6810901,65.38465315,0,0,,,,,,
54,2.28216244,233.995541,162.6939409,66.61832585,0,0,,,,,,
55,2.29703561,234.9954584,162.7067917,67.85199855,0,0,,,,,,
56,2.311640795,235.9953758,162.7196424,69.08567125,0,0,,,,,,
57,2.325987481,236.9952933,162.7324932,70.31934395,0,0,,,,,,
58,2.34008466,237.9952107,162.7453439,71.55301665,0,0,,,,,,
59,2.353940861,238.9951281,162.7581947,72.78668935,0,0,,,,,,
60,2.367564185,239.9950455,162.7710454,74.02036206,0,0,,,,,,
61,2.380962329,240.994963,162.7838962,75.25403476,0,0,,,,,,
62,2.394142618,241.9948804,162.796747,76.48770746,0,0,,,,,,
63,2.407112023,242.9947978,162.8095977,77.72138016,0,0,,,,,,
64,2.419877184,243.9947152,162.8224485,78.95505286,0,0,,,,,,
65,2.432444437,244.9946327,162.8352992,80.18872556,0,0,,,,,,
66,2.444819822,245.9945501,162.84815,81.42239826,0,0,,,,,,
67,2.457009112,246.9944675,162.8610007,82.65607096,0,0,,,,,,
68,2.46901782,247.9943849,162.8738515,83.88974366,0,0,,,,,,
69,2.480851218,248.9943024,162.8867023,85.12341636,0,0,,,,,,
70,2.492514351,249.9942198,162.899553,86.35708906,0,0,,,,,,
71,2.50401205,250.9941372,162.9124038,87.59076177,0,0,,,,,,
72,2.515348942,251.9940546,162.9252545,88.82443447,0,0,,,,,,
73,2.526529463,252.9939721,162.9381053,90.05810717,0,0,,,,,,
74,2.537557868,253.9938895,162.950956,91.29177987,0,0,,,,,,
75,2.54843824,254.9938069,162.9638068,92.52545257,0,0,,,,,,
76,2.559174502,255.9937243,162.9766576,93.75912527,0,0,,,,,,
77,2.569770421,256.9936418,162.9895083,94.99279797,0,0,,,,,,
77.81642564,2.57833562,257.81,163,95.64507443,0,0,,,,,,
78.81642564,2.588771578,258.8053977,162.9041694,96,0,0,,,,,,
79.81642564,2.599188245,259.8007953,162.8083387,96,0,0,,,,,,
80.81642564,2.609604911,260.796193,162.7125081,96,0,0,,,,,,
81.81642564,2.620021578,261.7915906,162.6166775,96,0,0,,,,,,
82.81642564,2.630438245,262.7869883,162.5208468,96,0,0,,,,,,
83.81642564,2.640854911,263.7823859,162.4250162,96,0,0,,,,,,
84.81642564,2.651271578,264.7777836,162.3291855,96,0,0,,,,,,
85.81642564,2.661688245,265.7731812,162.2333549,96,0,0,,,,,,
86.81642564,2.672104911,266.7685789,162.1375243,96,0,0,,,,,,
87.81642564,2.682521578,267.7639765,162.0416936,96,0,0,,,,,,
88.81642564,2.692938245,268.7593742,161.945863,96,0,0,,,,,,
89.81642564,2.703354911,269.7547718,161.8500324,96,0,0,,,,,,
90.81642564,2.713771578,270.7501695,161.7542017,96,0,0,,,,,,
91.81642564,2.724188245,271.7455672,161.6583711,96,0,0,,,,,,
92.81642564,2.734604911,272.7409648,161.5625404,96,0,0,,,,,,
93.81642564,2.745021578,273.7363625,161.4667098,96,0,0,,,,,,
94.81642564,2.755438245,274.7317601,161.3708792,96,0,0,,,,,,
95.81642564,2.765854911,275.7271578,161.2750485,96,0,0,,,,,,
96.81642564,2.776271578,276.7225554,161.1792179,96,0,0,,,,,,
97.81642564,2.786688245,277.7179531,161.0833873,96,0,0,,,,,,
98.81642564,2.797104911,278.7133507,160.9875566,96,0,0,,,,,,
99.81642564,2.807521578,279.7087484,160.891726,96,0,0,,,,,,
100.8164256,2.817938245,280.704146,160.7958953,96,0,0,,,,,,
101.8164256,2.828354911,281.6995437,160.7000647,96,0,0,,,,,,
102.8164256,2.838771578,282.6949413,160.6042341,96,0,0,,,,,,
103.8164256,2.849188245,283.690339,160.5084034,96,0,0,,,,,,
104.8164256,2.859604911,284.6857366,160.4125728,96,0,0,,,,,,
105.8164256,2.870021578,285.6811343,160.3167422,96,0,0,,,,,,
106.8164256,2.880438245,286.676532,160.2209115,96,0,0,,,,,,
107.8164256,2.890854911,287.6719296,160.1250809,96,0,0,,,,,,
108.8164256,2.901271578,288.6673273,160.0292502,96,0,0,,,,,,
109.8164256,2.911688245,289.6627249,159.9334196,96,0,0,,,,,,
110.8164256,2.922104911,290.6581226,159.837589,96,0,0,,,,,,
111.8164256,2.932521578,291.6535202,159.7417583,96,0,0,,,,,,
112.8164256,2.942938245,292.6489179,159.6459277,96,0,0,,,,,,
113.8164256,2.953354911,293.6443155,159.550097,96,0,0,,,,,,
114.8163793,2.963771096,294.6379261,159.4376451,96,0,0,,,,,,
115.8163331,2.97418728,295.627237,159.2921413,96,0,0,,,,,,
116.8162868,2.984603464,296.6111491,159.1137475,96,0,0,,,,,,
117.8162405,2.995019649,297.5885693,158.9026618,96,0,0,,,,,,
118.8161942,3.005435833,298.5584117,158.6591187,96,0,0,,,,,,
119.8161479,3.015852018,299.5195987,158.3833888,96,0,0,,,,,,
120.8161016,3.026268202,300.4710624,158.0757785,96,0,0,,,,,,
121.8160553,3.036684387,301.4117459,157.7366294,96,0,0,,,,,,
122.816009,3.047100571,302.3406039,157.3663185,96,0,0,,,,,,
123.8159627,3.057516755,303.2566045,156.965257,96,0,0,,,,,,
124.8159164,3.06793294,304.15873,156.5338906,96,0,0,,,,,,
125.8158701,3.078349124,305.0459782,156.0726986,96,0,0,,,,,,
126.8158238,3.088765309,305.9173632,155.5821933,96,0,0,,,,,,
127.8157775,3.099181493,306.7719171,155.0629197,96,0,0,,,,,,
128.8157312,3.109597678,307.6086904,154.5154547,96,0,0,,,,,,
129.8156849,3.120013862,308.4267533,153.9404065,96,0,0,,,,,,
130.8156386,3.130430046,309.2251972,153.3384141,96,0,0,,,,,,
131.8155923,3.140846231,310.0031347,152.7101462,96,0,0,,,,,,
132.815546,3.151262415,310.7597018,152.0563008,96,0,0,,,,,,
133.8154997,3.1616786,311.4940577,151.3776045,96,0,0,,,,,,
134.8154534,3.172094784,312.2053867,150.6748111,96,0,0,,,,,,
135.8154071,3.182510968,312.8928984,149.9487016,96,0,0,,,,,,
136.8153608,3.192927153,313.5558291,149.2000827,96,0,0,,,,,,
137.8153145,3.203343337,314.1934422,148.429786,96,0,0,,,,,,
138.8152683,3.213759522,314.8050292,147.6386673,96,0,0,,,,,,
139.815222,3.224175706,315.3899108,146.8276057,96,0,0,,,,,,
140.8151757,3.234591891,315.9474371,145.9975022,96,0,0,,,,,,
141.8151294,3.245008075,316.4769887,145.149279,96,0,0,,,,,,
142.8150831,3.255424259,316.9779772,144.2838786,96,0,0,,,,,,
143.8150368,3.265840444,317.4498461,143.4022624,96,0,0,,,,,,
144.8149905,3.276256628,317.8920711,142.5054099,96,0,0,,,,,,
145.8149442,3.286672813,318.3041609,141.5943175,96,0,0,,,,,,
146.8148979,3.297088997,318.6856577,140.6699974,96,0,0,,,,,,
147.8148516,3.307505182,319.0361376,139.7334765,96,0,0,,,,,,
148.8148053,3.317921366,319.3552112,138.7857955,96,0,0,,,,,,
149.814759,3.32833755,319.6425241,137.828007,96,0,0,,,,,,
150.8147127,3.338753735,319.8977569,136.8611753,96,0,0,,,,,,
151.8146664,3.349169919,320.1206263,135.8863744,96,0,0,,,,,,
152.8146201,3.359586104,320.3108844,134.9046875,96,0,0,,,,,,
153.8145738,3.370002288,320.4683201,133.9172051,96,0,0,,,,,,
154.8145275,3.380418472,320.5927583,132.9250244,96,0,0,,,,,,
155.8144812,3.390834657,320.6840608,131.9292477,96,0,0,,,,,,
156.8144349,3.401250841,320.7421262,130.9309813,96,0,0,,,,,,
157.8143886,3.411667026,320.76689,129.9313343,96,0,0,,,,,,
158.8143423,3.42208321,320.7583246,128.9314173,96,0,0,,,,,,
159.814296,3.432499395,320.7164395,127.9323412,96,0,0,,,,,,
160.8142497,3.442915579,320.6412814,126.935216,96,0,0,,,,,,
161.8142035,3.453331763,320.5329337,125.9411495,96,0,0,,,,,,
162.8141572,3.463747948,320.3915167,124.9512461,96,0,0,,,,,,
163.8141109,3.474164132,320.2171876,123.9666057,96,0,0,,,,,,
164.8140646,3.484580317,320.0101401,122.9883221,96,0,0,,,,,,
165.8081795,3.494935681,319.5192682,122.1238516,96,0,0,,,,,,
166.8081332,3.505351865,319.0872309,121.2220472,96,0,0,,,,,,
167.8080869,3.51576805,318.6253791,120.3351423,96,0,0,,,,,,
168.8080406,3.526184234,318.1342258,119.4641223,96,0,0,,,,,,
169.8079943,3.536600418,317.6143167,118.6099549,96,0,0,,,,,,
170.807948,3.547016603,317.0662294,117.7735891,96,0,0,,,,,,
171.8079017,3.557432787,316.490573,116.955954,96,0,0,,,,,,
172.8078554,3.567848972,315.8879868,116.1579582,96,0,0,,,,,,
173.8078092,3.578265156,315.2591404,115.3804882,96,0,0,,,,,,
174.8077629,3.588681341,314.6047325,114.6244077,96,0,0,,,,,,
175.8077166,3.599097525,313.9254902,113.8905567,96,0,0,,,,,,
176.8076703,3.609513709,313.2221679,113.1797507,96,0,0,,,,,,
177.807624,3.619929894,312.4955472,112.4927792,96,0,0,,,,,,
178.8075777,3.630346078,311.7464354,111.8304056,96,0,0,,,,,,
179.8075314,3.640762263,310.9756647,111.1933657,96,0,0,,,,,,
180.8074851,3.651178447,310.1840913,110.5823672,96,0,0,,,,,,
181.8074388,3.661594631,309.3725949,109.9980891,96,0,0,,,,,,
182.8073925,3.672010816,308.5420769,109.4411804,96,0,0,,,,,,
183.8073462,3.682427,307.6934601,108.9122598,96,0,0,,,,,,
184.8072999,3.692843185,306.8276873,108.4119151,96,0,0,,,,,,
185.8072536,3.703259369,305.9457204,107.9407021,96,0,0,,,,,,
186.8072073,3.713675554,305.0485392,107.4991443,96,0,0,,,,,,
187.807161,3.724091738,304.1371405,107.0877322,96,0,0,,,,,,
188.8071147,3.734507922,303.2125369,106.7069231,96,0,0,,,,,,
189.8070684,3.744924107,302.2757556,106.3571399,96,0,0,,,,,,
190.8070221,3.755340291,301.3278375,106.0387712,96,0,0,,,,,,
191.8069758,3.765756476,300.3698356,105.7521709,96,0,0,,,,,,
192.8069295,3.77617266,299.4028143,105.4976572,96,0,0,,,,,,
193.8068832,3.786588845,298.4278479,105.275513,96,0,0,,,,,,
194.8068369,3.797005029,297.4460198,105.0859851,96,0,0,,,,,,
195.8067906,3.807421213,296.4584206,104.9292839,96,0,0,,,,,,
196.8067444,3.817837398,295.4661476,104.8055837,96,0,0,,,,,,
197.8066981,3.828253582,294.4703032,104.7150219,96,0,0,,,,,,
198.8066518,3.838669767,293.4719939,104.657699,96,0,0,,,,,,
199.8066518,3.849086433,292.4721546,104.6756274,96,0,0,,,,,,
200.8066518,3.8595031,291.4723154,104.6935558,96,0,0,,,,,,
201.8066518,3.869919767,290.4724761,104.7114841,96,0,0,,,,,,
202.8066518,3.880336433,289.4726368,104.7294125,96,0,0,,,,,,
203.8066518,3.8907531,288.4727975,104.7473408,96,0,0,,,,,,
204.8066518,3.901169767,287.4729583,104.7652692,96,0,0,,,,,,
205.8066518,3.911586433,286.473119,104.7831975,96,0,0,,,,,,
206.8085342,3.922022708,285.4716906,104.7530413,96,0,0,,,,,,
207.8084879,3.932438893,284.4729718,104.8027226,96,0,0,,,,,,
208.8084416,3.942855077,283.4764635,104.8856608,96,0,0,,,,,,
209.8083953,3.953271261,282.483273,105.0017637,96,0,0,,,,,,
210.808349,3.963687446,281.4945035,105.1509023,96,0,0,,,,,,
211.8083027,3.97410363,280.5112536,105.332911,96,0,0,,,,,,
212.8082564,3.984519815,279.5346158,105.5475875,96,0,0,,,,,,
213.8082101,3.994935999,278.5656751,105.7946933,96,0,0,,,,,,
214.8081638,4.005352184,277.605508,106.0739538,96,0,0,,,,,,
215.8081175,4.015768368,276.6551811,106.3850589,96,0,0,,,,,,
216.8080712,4.026184552,275.7157505,106.7276629,96,0,0,,,,,,
217.8080249,4.036600737,274.7882597,107.1013851,96,0,0,,,,,,
218.8079786,4.047016921,273.8737393,107.5058103,96,0,0,,,,,,
219.8079323,4.057433106,272.9732052,107.9404892,96,0,0,,,,,,
220.807886,4.06784929,272.087658,108.404939,96,0,0,,,,,,
221.8078397,4.078265475,271.2180815,108.8986434,96,0,0,,,,,,
222.8077934,4.088681659,270.3654418,109.4210542,96,0,0,,,,,,
223.8077471,4.099097843,269.5306862,109.9715908,96,0,0,,,,,,
224.8077008,4.109514028,268.7147422,110.5496416,96,0,0,,,,,,
225.8076545,4.119930212,267.9185162,111.1545644,96,0,0,,,,,,
226.8076082,4.130346397,267.1428929,111.7856871,96,0,0,,,,,,
227.8075619,4.140762581,266.388734,112.4423086,96,0,0,,,,,,
228.8075157,4.151178765,265.6568773,113.1236992,96,0,0,,,,,,
229.8074694,4.16159495,264.948136,113.8291021,96,0,0,,,,,,
230.8074231,4.172011134,264.2632975,114.5577334,96,0,0,,,,,,
231.8073768,4.182427319,263.6031226,115.3087837,96,0,0,,,,,,
232.8073305,4.192843503,262.9683449,116.0814186,96,0,0,,,,,,
233.8072842,4.203259688,262.3596695,116.8747795,96,0,0,,,,,,
234.8072379,4.213675872,261.7777726,117.6879852,96,0,0,,,,,,
235.8071916,4.224092056,261.2233009,118.5201322,96,0,0,,,,,,
236.8071453,4.234508241,260.6968703,119.3702958,96,0,0,,,,,,
237.807099,4.244924425,260.1990656,120.2375316,96,0,0,,,,,,
238.8070527,4.25534061,259.73044,121.1208761,96,0,0,,,,,,
239.8070064,4.265756794,259.291514,122.0193478,96,0,0,,,,,,
240.8069601,4.276172978,258.8827754,122.9319485,96,0,0,,,,,,
241.8069138,4.286589163,258.5046783,123.8576645,96,0,0,,,,,,
242.8068675,4.297005347,258.1576427,124.795467,96,0,0,,,,,,
243.8068212,4.307421532,257.8420541,125.7443144,96,0,0,,,,,,
244.8067749,4.317837716,257.5582632,126.7031523,96,0,0,,,,,,
245.8067286,4.328253901,257.3065854,127.6709155,96,0,0,,,,,,
246.8066823,4.338670085,257.0873001,128.6465289,96,0,0,,,,,,
247.806636,4.349086269,256.9006511,129.6289084,96,0,0,,,,,,
248.8065897,4.359502454,256.7468457,130.6169627,96,0,0,,,,,,
249.8065434,4.369918638,256.6260548,131.609594,96,0,0,,,,,,
250.8064971,4.380334823,256.5384125,132.6056996,96,0,0,,,,,,
251.8064509,4.390751007,256.4840163,133.6041726,96,0,0,,,,,,
252.8064046,4.401167192,256.4629266,134.6039039,96,0,0,,,,,,
253.8063583,4.411583376,256.4751669,135.6037827,96,0,0,,,,,,
254.806312,4.42199956,256.5207234,136.6026981,96,0,0,,,,,,
255.8062657,4.432415745,256.5995456,137.5995404,96,0,0,,,,,,
256.8062194,4.442831929,256.711546,138.593202,96,0,0,,,,,,
257.8061731,4.453248114,256.8566001,139.5825789,96,0,0,,,,,,
258.8061268,4.463664298,257.0345467,140.566572,96,0,0,,,,,,
259.8060805,4.474080482,257.2451882,141.544088,96,0,0,,,,,,
260.8000659,4.484434497,257.5852811,142.4780815,96,0,0,,,,,,
261.7998807,4.494849235,258.0009115,143.3874115,96,0,0,,,,,,
262.7996956,4.505263973,258.4761957,144.2670333,96,0,0,,,,,,
263.7995104,4.515678711,259.0090222,145.113039,96,0,0,,,,,,
264.7993252,4.526093448,259.5970237,145.92167,96,0,0,,,,,,
265.79914,4.536508186,260.2375878,146.6893335,96,0,0,,,,,,
266.7989549,4.546922924,260.9278686,147.4126191,96,0,0,,,,,,
267.7987697,4.557337662,261.6647993,148.0883134,96,0,0,,,,,,
268.7987697,4.567754328,262.475575,148.6736703,96,0,0,,,,,,
269.7987697,4.578170995,263.2863508,149.2590272,96,0,0,,,,,,
270.7987697,4.588587662,264.0971265,149.8443841,96,0,0,,,,,,
271.7987697,4.599004328,264.9079023,150.429741,96,0,0,,,,,,
272.7987697,4.609420995,265.718678,151.0150979,96,0,0,,,,,,
273.7987697,4.619837662,266.5294537,151.6004548,96,0,0,,,,,,
274.7987697,4.630254328,267.3402295,152.1858117,96,0,0,,,,,,
275.7987697,4.640670995,268.1510052,152.7711686,96,0,0,,,,,,
276.7987697,4.651087662,268.9617809,153.3565255,96,0,0,,,,,,
277.7987697,4.661504328,269.7725567,153.9418824,96,0,0,,,,,,
278.7987697,4.671920995,270.5833324,154.5272393,96,0,0,,,,,,
279.7987697,4.682337662,271.3941082,155.1125962,96,0,0,,,,,,
280.7987697,4.692754328,272.2048839,155.6979531,96,0,0,,,,,,
281.7987697,4.703170995,273.0156596,156.28331,96,0,0,,,,,,
282.7987697,4.713587662,273.8264354,156.8686669,96,0,0,,,,,,
283.7987697,4.724004328,274.6372111,157.4540238,96,0,0,,,,,,
284.7987697,4.734420995,275.4479869,158.0393807,96,0,0,,,,,,
285.8005457,4.744856162,276.2294357,158.6661925,96,0,0,,,,,,
286.8004994,4.755272346,277.0552763,159.2300139,96,0,0,,,,,,
287.8004531,4.765688531,277.8994488,159.7659992,96,0,0,,,,,,
288.8004068,4.776104715,278.7610152,160.2735529,96,0,0,,,,,,
289.8003605,4.786520899,279.6390183,160.7521111,96,0,0,,,,,,
290.8003142,4.796937084,280.5324827,161.2011421,96,0,0,,,,,,
291.8002679,4.807353268,281.4404157,161.620147,96,0,0,,,,,,
292.8002216,4.817769453,282.3618085,162.0086603,96,0,0,,,,,,
293.8001753,4.828185637,283.2956376,162.3662504,96,0,0,,,,,,
294.800129,4.838601822,284.2408654,162.69252,96,0,0,,,,,,
295.8000827,4.849018006,285.1964417,162.9871066,96,0,0,,,,,,
296.8000364,4.859454156,286.161305,163.2496829,95.63267345,0,0,,,,,,
297.7999902,4.869930469,287.1343832,163.4799571,95.26534689,0,0,,,,,,
298.7999439,4.880447255,288.1145952,163.6776736,94.89802034,0,0,,,,,,
299.7998976,4.891004828,289.1008521,163.8426125,94.53069379,0,0,,,,,,
300.7998513,4.901603505,290.092058,163.9745906,94.16336724,0,0,,,,,,
301.799805,4.912243608,291.0871118,164.0734614,93.79604068,0,0,,,,,,
302.7997587,4.922925461,292.0849078,164.1391149,93.42871413,0,0,,,,,,
303.7997124,4.933649394,293.0843377,164.1714782,93.06138758,0,0,,,,,,
304.7996661,4.94441574,294.0842909,164.1705154,92.69406102,0,0,,,,,,
305.7996661,4.955225337,295.0807776,164.0867644,92.32671746,0,0,,,,,,
306.7996661,4.966078028,296.0772644,164.0030133,91.95937391,0,0,,,,,,
307.7996661,4.976974158,297.0737511,163.9192623,91.59203035,0,0,,,,,,
308.7996661,4.987914077,298.0702378,163.8355113,91.22468679,0,0,,,,,,
309.7996661,4.998898137,299.0667245,163.7517603,90.85734323,0,0,,,,,,
310.7996661,5.009926697,300.0632112,163.6680093,90.48999967,0,0,,,,,,
311.7996661,5.021000118,301.0596979,163.5842582,90.12265611,0,0,,,,,,
312.7996661,5.032118767,302.0561846,163.5005072,89.75531255,0,0,,,,,,
313.7996661,5.043283015,303.0526713,163.4167562,89.38796899,0,0,,,,,,
314.7996661,5.054493237,304.049158,163.3330052,89.02062543,0,0,,,,,,
315.7996661,5.065749814,305.0456448,163.2492542,88.65328187,0,0,,,,,,
316.7996661,5.077053131,306.0421315,163.1655031,88.28593831,0,0,,,,,,
317.7996661,5.088403576,307.0386182,163.0817521,87.91859475,0,0,,,,,,
318.7996661,5.099801546,308.0351049,162.9980011,87.55125119,0,0,,,,,,
