Distance (in),Time (s),X (in),Y (in),Velocity (in/s),Orientation (deg),Touch,Way X (in),Way Y (in),Way Velocity (in/s),Way Orientation (deg),Way Turn Radius (in),Touch this Point
0.0,0.0,180.0,162.0,0.0,0.0,0,180.0,162.0,0.0,0.0,3.0,0.0
1.0000000000000133,0.16666666666666888,180.99991742560914,162.01285075730124,12.0,0.0,0,257.81,163.0,96.0,0.0,10.0,0.0
2.0000000000000266,0.25000000000000333,181.99983485121828,162.02570151460247,12.0,0.0,0,330.0,156.05,96.0,0.0,30.0,0.0
3.00000000000004,0.33333333333333776,182.99975227682742,162.0385522719037,12.0,0.0,0,314.45,104.23,96.0,0.0,30.0,0.0
4.000000000000053,0.4166666666666722,183.99966970243656,162.05140302920495,12.0,0.0,0,246.97,105.44,96.0,0.0,30.0,1
5.000000000000067,0.5000000000000067,184.9995871280457,162.06425378650619,12.0,0.0,0,258.42,145.81,96.0,0.0,15.0,0.0
6.00000000000008,0.5833333333333411,185.99950455365484,162.07710454380742,12.0,0.0,0,285.0,165.0,96.0,0.0,30.0,0.0
7.000000000000093,0.6666666666666756,186.99942197926399,162.08995530110866,12.0,0.0,0,384.35,156.65,96.0,0.0,30.0,0.0
8.000000000000107,0.7500000000000101,187.99933940487313,162.1028060584099,12.0,0.0,0,415.0,191.0,96.0,0.0,30.0,0
9.00000000000012,0.8333333333333446,188.99925683048227,162.11565681571113,12.0,0.0,0,385.23,223.0,96.0,0.0,16.0,1
10.000000000000135,0.9155136527840705,189.9991742560914,162.12850757301237,12.336727009186154,0.0,0,327.0,214.77,96.0,0.0,30.0,0
11.00000000000015,0.9927124877483041,190.99909168170055,162.1413583303136,13.57039971010477,0.0,0,390.0,132.0,96.0,0.0,10.0,0.0
12.000000000000163,1.0631983805417349,191.9990091073097,162.15420908761484,14.804072411023386,0.0,0,430.98,103.51,96.0,0.0,30.0,0.0
13.000000000000178,1.1280454019116912,192.99892653291883,162.16705984491608,16.037745111942,0.0,0,475.49,123.93,96.0,0.0,25.0,1
14.000000000000192,1.1880889402172063,193.99884395852797,162.17991060221732,17.27141781286062,0.0,0,460.54,154.59,96.0,0.0,30.0,0.0
15.000000000000206,1.243991544846479,194.9987613841371,162.19276135951856,18.505090513779237,0.0,0,432.65,167.69,96.0,0.0,30.0,0.0
16.00000000000022,1.29628752982225,195.99867880974625,162.2056121168198,19.738763214697855,0.0,0,367.64,157.68,96.0,0.0,30.0,0.0
17.000000000000234,1.345414061163126,196.9985962353554,162.21846287412103,20.972435915616472,0.0,0,270.0,167.0,96.0,0.0,50.0,0.0
18.00000000000025,1.391733362141666,197.99851366096453,162.23131363142227,22.20610861653509,0.0,0,190.0,162.0,144.0,0.0,3.0,0
19.000000000000263,1.4355489171213662,198.99843108657367,162.2441643887235,23.439781317453708,0.0,0,180.0,162.0,0.0,0.0,3.0,0.0
20.000000000000277,1.4771175205636458,199.99834851218282,162.25701514602474,24.673454018372325,0.0,0,,,,,,
21.00000000000029,1.5166583872526433,200.99826593779196,162.26986590332598,25.907126719290943,0.0,0,,,,,,
22.000000000000306,1.554360143863083,201.9981833634011,162.28271666062722,27.14079942020956,0.0,0,,,,,,
23.00000000000032,1.590386266846392,202.99810078901024,162.29556741792845,28.37447212112818,0.0,0,,,,,,
24.000000000000334,1.624879363319773,203.99801821461938,162.3084181752297,29.608144822046796,0.0,0,,,,,,
25.000000000000348,1.6579645783044445,204.99793564022852,162.32126893253093,30.841817522965414,0.0,0,,,,,,
26.000000000000362,1.6897523338779525,205.99785306583766,162.33411968983216,32.07549022388403,0.0,0,,,,,,
27.000000000000377,1.7203405515052903,206.9977704914468,162.3469704471334,33.30916292480265,0.0,0,,,,,,
28.00000000000039,1.7498164703098158,207.99768791705594,162.35982120443464,34.54283562572127,0.0,0,,,,,,
29.000000000000405,1.7782581463492704,208.99760534266508,162.37267196173588,35.776508326639885,0.0,0,,,,,,
30.00000000000042,1.8057356977772179,209.99752276827422,162.3855227190371,37.0101810275585,0.0,0,,,,,,
31.000000000000433,1.8323123458796589,210.99744019388336,162.39837347633835,38.24385372847712,0.0,0,,,,,,
32.00000000000045,1.8580452908677367,211.9973576194925,162.4112242336396,39.47752642939574,0.0,0,,,,,,
33.00000000000046,1.8829864529331044,212.99727504510165,162.42407499094082,40.711199130314355,0.0,0,,,,,,
34.000000000000476,1.9071831026980135,213.9971924707108,162.43692574824206,41.94487183123297,0.0,0,,,,,,
35.00000000000049,1.9306784002958237,214.99710989631993,162.4497765055433,43.17854453215159,0.0,0,,,,,,
36.000000000000504,1.9535118585246816,215.99702732192907,162.46262726284453,44.41221723307021,0.0,0,,,,,,
37.00000000000052,1.9757197425554884,216.9969447475382,162.47547802014577,45.645889933988826,0.0,0,,,,,,
38.00000000000053,1.9973354163454737,217.99686217314735,162.488328777447,46.879562634907444,0.0,0,,,,,,
39.00000000000055,2.018389644062992,218.9967795987565,162.50117953474825,48.11323533582606,0.0,0,,,,,,
40.00000000000056,2.0389108533572817,219.99669702436563,162.51403029204948,49.34690803674468,0.0,0,,,,,,
41.000000000000576,2.058925366125787,220.99661444997477,162.52688104935072,50.5805807376633,0.0,0,,,,,,
42.00000000000059,2.0784576014781835,221.9965318755839,162.53973180665196,51.814253438581915,0.0,0,,,,,,
43.000000000000604,2.097530254822288,222.99644930119305,162.5525825639532,53.04792613950053,0.0,0,,,,,,
44.00000000000062,2.1161644563653788,223.9963667268022,162.56543332125443,54.28159884041915,0.0,0,,,,,,
45.00000000000063,2.1343799118063775,224.99628415241133,162.57828407855567,55.51527154133777,0.0,0,,,,,,
46.00000000000065,2.1521950275673545,225.99620157802048,162.5911348358569,56.748944242256385,0.0,0,,,,,,
47.00000000000066,2.169627022559278,226.99611900362962,162.60398559315814,57.982616943175,0.0,0,,,,,,
48.000000000000675,2.186692028182951,227.99603642923876,162.61683635045938,59.21628964409362,0.0,0,,,,,,
49.00000000000069,2.2034051780205686,228.9959538548479,162.62968710776062,60.44996234501224,0.0,0,,,,,,
50.0000000000007,2.219780688467527,229.99587128045704,162.64253786506185,61.683635045930856,0.0,0,,,,,,
51.00000000000072,2.2358319313808828,230.99578870606618,162.6553886223631,62.917307746849474,0.0,0,,,,,,
52.00000000000073,2.2515714996745615,231.99570613167532,162.66823937966433,64.15098044776809,0.0,0,,,,,,
53.000000000000746,2.2670112666674083,232.99562355728446,162.68109013696557,65.38465314868671,0.0,0,,,,,,
54.00000000000076,2.282162439884688,233.9955409828936,162.6939408942668,66.61832584960533,0.0,0,,,,,,
55.000000000000774,2.2970356099236686,234.99545840850274,162.70679165156804,67.85199855052394,0.0,0,,,,,,
56.00000000000079,2.3116407949169018,235.99537583411188,162.71964240886928,69.08567125144256,0.0,0,,,,,,
57.0000000000008,2.3259874810606975,236.99529325972102,162.7324931661705,70.31934395236118,0.0,0,,,,,,
58.00000000000082,2.3400846596193836,237.99521068533016,162.74534392347175,71.5530166532798,0.0,0,,,,,,
59.00000000000083,2.35394086076681,238.9951281109393,162.758194680773,72.78668935419842,0.0,0,,,,,,
60.000000000000846,2.367564184584028,239.99504553654845,162.77104543807422,74.02036205511703,0.0,0,,,,,,
61.00000000000086,2.380962329495176,240.9949629621576,162.78389619537546,75.25403475603565,0.0,0,,,,,,
62.000000000000874,2.394142618391508,241.99488038776673,162.7967469526767,76.48770745695427,0.0,0,,,,,,
63.00000000000089,2.4071120226654994,242.99479781337587,162.80959770997794,77.72138015787289,0.0,0,,,,,,
64.0000000000009,2.4198771843524987,243.994715238985,162.82244846727917,78.95505285879149,0.0,0,,,,,,
65.00000000000091,2.4324444365559788,244.99463266459415,162.8352992245804,80.18872555971011,0.0,0,,,,,,
66.00000000000092,2.444819822313604,245.9945500902033,162.84814998188165,81.42239826062873,0.0,0,,,,,,
67.00000000000094,2.457009112044799,246.99446751581243,162.86100073918288,82.65607096154734,0.0,0,,,,,,
68.00000000000095,2.469017819705902,247.99438494142157,162.87385149648412,83.88974366246596,0.0,0,,,,,,
69.00000000000097,2.4808512177661126,248.9943023670307,162.88670225378536,85.12341636338458,0.0,0,,,,,,
70.00000000000098,2.4925143511060326,249.99421979263985,162.8995530110866,86.3570890643032,0.0,0,,,,,,
71.000000000001,2.504012049930493,250.994137218249,162.91240376838783,87.59076176522181,0.0,0,,,,,,
72.00000000000101,2.5153489417783876,251.99405464385814,162.92525452568907,88.82443446614043,0.0,0,,,,,,
73.00000000000102,2.526529462704242,252.99397206946728,162.9381052829903,90.05810716705905,0.0,0,,,,,,
74.00000000000104,2.5375578676991326,253.99388949507642,162.95095604029154,91.29177986797767,0.0,0,,,,,,
75.00000000000105,2.5484382404122123,254.99380692068556,162.96380679759278,92.52545256889628,0.0,0,,,,,,
76.00000000000107,2.5591745022284305,255.9937243462947,162.97665755489402,93.7591252698149,0.0,0,,,,,,
77.00000000000105,2.5697704207529326,256.9936417719038,162.98950831219526,94.99279797073348,0.0,0,,,,,,
77.81642564394748,2.5783356196156575,257.81,163.0,95.6450744316117,0.0,0,,,,,,
78.8164256439475,2.5887715778886875,258.8053976536995,162.90416936288668,96.0,0.0,0,,,,,,
79.81642564394751,2.5991882445553545,259.800795307399,162.80833872577335,96.0,0.0,0,,,,,,
80.81642564394753,2.6096049112220214,260.79619296109854,162.71250808866003,96.0,0.0,0,,,,,,
81.81642564394754,2.6200215778886884,261.79159061479805,162.6166774515467,96.0,0.0,0,,,,,,
82.81642564394755,2.6304382445553554,262.78698826849757,162.52084681443338,96.0,0.0,0,,,,,,
83.81642564394757,2.6408549112220223,263.7823859221971,162.42501617732006,96.0,0.0,0,,,,,,
84.81642564394758,2.6512715778886893,264.7777835758966,162.32918554020674,96.0,0.0,0,,,,,,
85.8164256439476,2.6616882445553562,265.7731812295961,162.2333549030934,96.0,0.0,0,,,,,,
86.81642564394761,2.672104911222023,266.7685788832956,162.1375242659801,96.0,0.0,0,,,,,,
87.81642564394762,2.68252157788869,267.76397653699513,162.04169362886677,96.0,0.0,0,,,,,,
88.81642564394764,2.692938244555357,268.75937419069464,161.94586299175344,96.0,0.0,0,,,,,,
89.81642564394765,2.703354911222024,269.75477184439416,161.85003235464012,96.0,0.0,0,,,,,,
90.81642564394767,2.713771577888691,270.75016949809367,161.7542017175268,96.0,0.0,0,,,,,,
91.81642564394768,2.724188244555358,271.7455671517932,161.65837108041347,96.0,0.0,0,,,,,,
92.8164256439477,2.734604911222025,272.7409648054927,161.56254044330015,96.0,0.0,0,,,,,,
93.81642564394771,2.745021577888692,273.7363624591922,161.46670980618683,96.0,0.0,0,,,,,,
94.81642564394772,2.755438244555359,274.7317601128917,161.3708791690735,96.0,0.0,0,,,,,,
95.81642564394774,2.765854911222026,275.72715776659123,161.27504853196018,96.0,0.0,0,,,,,,
96.81642564394775,2.776271577888693,276.72255542029075,161.17921789484686,96.0,0.0,0,,,,,,
97.81642564394777,2.78668824455536,277.71795307399026,161.08338725773353,96.0,0.0,0,,,,,,
98.81642564394778,2.7971049112220268,278.7133507276898,160.9875566206202,96.0,0.0,0,,,,,,
99.8164256439478,2.8075215778886937,279.7087483813893,160.8917259835069,96.0,0.0,0,,,,,,
100.81642564394781,2.8179382445553607,280.7041460350888,160.79589534639356,96.0,0.0,0,,,,,,
101.81642564394782,2.8283549112220276,281.6995436887883,160.70006470928024,96.0,0.0,0,,,,,,
102.81642564394784,2.8387715778886946,282.6949413424878,160.60423407216692,96.0,0.0,0,,,,,,
103.81642564394785,2.8491882445553616,283.69033899618734,160.5084034350536,96.0,0.0,0,,,,,,
104.81642564394787,2.8596049112220285,284.68573664988685,160.41257279794027,96.0,0.0,0,,,,,,
105.81642564394788,2.8700215778886955,285.68113430358636,160.31674216082695,96.0,0.0,0,,,,,,
106.8164256439479,2.8804382445553625,286.6765319572859,160.22091152371362,96.0,0.0,0,,,,,,
107.81642564394791,2.8908549112220294,287.6719296109854,160.1250808866003,96.0,0.0,0,,,,,,
108.81642564394792,2.9012715778886964,288.6673272646849,160.02925024948698,96.0,0.0,0,,,,,,
109.81642564394794,2.9116882445553633,289.6627249183844,159.93341961237365,96.0,0.0,0,,,,,,
110.81642564394795,2.9221049112220303,290.6581225720839,159.83758897526033,96.0,0.0,0,,,,,,
111.81642564394797,2.9325215778886973,291.65352022578344,159.741758338147,96.0,0.0,0,,,,,,
112.81642564394798,2.9429382445553642,292.64891787948295,159.64592770103368,96.0,0.0,0,,,,,,
113.81642564394603,2.9533549112220108,293.6443155294458,159.55009702512808,96.0,0.0,0,,,,,,
114.81637934829274,2.963771095642289,294.6379261005294,159.43764506263898,96.0,0.0,0,,,,,,
115.81633305263942,2.974187280062567,295.6272370122096,159.29214134836639,96.0,0.0,0,,,,,,
116.81628675698614,2.9846034644828454,296.6111491319174,159.11374753813502,96.0,0.0,0,,,,,,
117.81624046133287,2.9950196489031238,297.5885693251859,158.90266182893697,96.0,0.0,0,,,,,,
118.81619416567956,3.0054358333234017,298.5584116701321,158.6591187387333,96.0,0.0,0,,,,,,
119.81614787002626,3.0158520177436796,299.5195986639248,158.3833888459026,96.0,0.0,0,,,,,,
120.816101574373,3.026268202163958,300.4710624198993,158.07577848862627,96.0,0.0,0,,,,,,
121.8160552787197,3.0366843865842363,301.411745853988,157.7366294245442,96.0,0.0,0,,,,,,
122.81600898306637,3.0471005710045143,302.34060385914984,157.3663184510592,96.0,0.0,0,,,,,,
123.81596268741309,3.0575167554247926,303.25660446649266,156.965256986712,96.0,0.0,0,,,,,,
124.81591639175979,3.0679329398450705,304.1587299917991,156.53389061409206,96.0,0.0,0,,,,,,
125.81587009610652,3.078349124265349,305.0459781661822,156.07269858479123,96.0,0.0,0,,,,,,
126.8158238004532,3.088765308685627,305.9173632496143,155.5821932869517,96.0,0.0,0,,,,,,
127.81577750479994,3.099181493105905,306.77191712609266,155.0629196759983,96.0,0.0,0,,,,,,
128.81573120914663,3.109597677526183,307.60869037922373,154.51545466918864,96.0,0.0,0,,,,,,
129.81568491349336,3.1200138619464615,308.4267533470332,153.94040650465325,96.0,0.0,0,,,,,,
130.81563861784008,3.13043004636674,309.2251971548276,153.33841406563803,96.0,0.0,0,,,,,,
131.81559232218675,3.1408462307870177,310.00313472496185,152.71014617069972,96.0,0.0,0,,,,,,
132.81554602653347,3.151262415207296,310.7597017623899,152.05630083064287,96.0,0.0,0,,,,,,
133.81549973088016,3.161678599627574,311.4940577149033,151.37760447302423,96.0,0.0,0,,,,,,
134.81545343522686,3.172094784047852,312.205386706992,150.6748111350857,96.0,0.0,0,,,,,,
135.81540713957358,3.1825109684681303,312.8928984462885,149.94870162601268,96.0,0.0,0,,,,,,
136.81536084392025,3.1929271528884082,313.5558291015892,149.20008265944878,96.0,0.0,0,,,,,,
137.81531454826694,3.203343337308686,314.1934421514774,148.42978595723014,96.0,0.0,0,,,,,,
138.81526825261366,3.2137595217289645,314.8050292026045,147.63866732533575,96.0,0.0,0,,,,,,
139.8152219569604,3.224175706149243,315.3899107767205,146.8276057030799,96.0,0.0,0,,,,,,
140.81517566130705,3.234591890569521,315.94743706558063,145.9975021866035,96.0,0.0,0,,,,,,
141.81512936565377,3.245008074989799,316.47698865288714,145.14927902774855,96.0,0.0,0,,,,,,
142.81508307000047,3.255424259410077,316.97797720246604,144.28387860942908,96.0,0.0,0,,,,,,
143.8150367743472,3.2658404438303554,317.44984611191353,143.40226239863577,96.0,0.0,0,,,,,,
144.81499047869391,3.276256628250634,317.89207113098564,142.50540987823825,96.0,0.0,0,,,,,,
145.8149441830406,3.2866728126709117,318.3041609440448,141.59431745877163,96.0,0.0,0,,,,,,
146.81489788738733,3.29708899709119,318.6856577159155,140.6699973714161,96.0,0.0,0,,,,,,
147.81485159173403,3.307505181511468,319.0361376005428,139.7334765433998,96.0,0.0,0,,,,,,
148.81480529608075,3.3179213659317464,319.35521121188896,138.78579545707422,96.0,0.0,0,,,,,,
149.81475900042744,3.3283375503520243,319.6425240565444,137.82800699392973,96.0,0.0,0,,,,,,
150.81471270477414,3.338753734772302,319.89775692757297,136.86117526483557,96.0,0.0,0,,,,,,
151.81466640912083,3.34916991919258,320.1206262591532,135.8863744278039,96.0,0.0,0,,,,,,
152.81462011346756,3.3595861036128585,320.31088444162265,134.9046874945914,96.0,0.0,0,,,,,,
153.81457381781425,3.3700022880331364,320.46832009657385,133.9172051274644,96.0,0.0,0,,,,,,
154.81452752216097,3.3804184724534148,320.59275831169793,132.9250244274639,96.0,0.0,0,,,,,,
155.81448122650767,3.3908346568736927,320.6840608351131,131.92924771551756,96.0,0.0,0,,,,,,
156.8144349308544,3.401250841293971,320.742126228964,130.93098130775175,96.0,0.0,0,,,,,,
157.81438863520108,3.411667025714249,320.7668899821201,129.93133428636554,96.0,0.0,0,,,,,,
158.81434233954778,3.422083210134527,320.75832458184766,128.93141726743104,96.0,0.0,0,,,,,,
159.81429604389447,3.432499394554805,320.71643954437684,127.93234116698986,96.0,0.0,0,,,,,,
160.81424974824117,3.4429155789750827,320.6412814043293,126.93521596681624,96.0,0.0,0,,,,,,
161.8142034525879,3.453331763395361,320.53293366301733,125.94114948121816,96.0,0.0,0,,,,,,
162.81415715693458,3.463747947815639,320.39151669567383,124.95124612624655,96.0,0.0,0,,,,,,
163.81411086128128,3.474164132235917,320.217187617714,123.96660569267989,96.0,0.0,0,,,,,,
164.81406456562797,3.484580316656195,320.0101401101788,122.98832212414766,96.0,0.0,0,,,,,,
165.8081795190817,3.494935680754671,319.5192681733352,122.12385160278806,96.0,0.0,0,,,,,,
166.8081332234284,3.505351865174949,319.08723091639234,121.2220471786195,96.0,0.0,0,,,,,,
167.8080869277751,3.515768049595227,318.62537907683696,120.335142285671,96.0,0.0,0,,,,,,
168.8080406321218,3.526184234015505,318.13422577586573,119.46412228258166,96.0,0.0,0,,,,,,
169.80799433646848,3.536600418435783,317.61431668884035,118.60995487974711,96.0,0.0,0,,,,,,
170.80794804081518,3.547016602856061,317.06622943903756,117.77358906418533,96.0,0.0,0,,,,,,
171.80790174516187,3.5574327872763387,316.490572955905,116.95595404520427,96.0,0.0,0,,,,,,
172.80785544950857,3.5678489716966166,315.88798679853556,116.15795822204265,96.0,0.0,0,,,,,,
173.80780915385532,3.5782651561168954,315.2591404451118,115.3804881746309,96.0,0.0,0,,,,,,
174.807762858202,3.5886813405371734,314.6047325491107,114.6244076785936,96.0,0.0,0,,,,,,
175.8077165625487,3.5990975249574513,313.92549016309306,113.89055674558759,96.0,0.0,0,,,,,,
176.80767026689543,3.6095137093777296,313.2221679309429,113.1797506900422,96.0,0.0,0,,,,,,
177.80762397124212,3.6199298937980076,312.4955472494515,112.49277922333806,96.0,0.0,0,,,,,,
178.80757767558882,3.6303460782182855,311.7464354001791,111.8304055764314,96.0,0.0,0,,,,,,
179.80753137993554,3.640762262638564,310.9756646525587,111.1933656518981,96.0,0.0,0,,,,,,
180.80748508428223,3.6511784470588418,310.1840913392376,110.58236720633987,96.0,0.0,0,,,,,,
181.80743878862893,3.6615946314791197,309.372594904685,109.99808906406084,96.0,0.0,0,,,,,,
182.80739249297565,3.672010815899398,308.5420769281216,109.44118036288819,96.0,0.0,0,,,,,,
183.80734619732235,3.682427000319676,307.69346012185827,108.91225983297463,96.0,0.0,0,,,,,,
184.80729990166907,3.6928431847399543,306.8276873061543,108.4119151093842,96.0,0.0,0,,,,,,
185.80725360601576,3.7032593691602322,305.9457203617371,107.94070207922476,96.0,0.0,0,,,,,,
186.80720731036246,3.71367555358051,305.04853916114416,107.49914426405292,96.0,0.0,0,,,,,,
187.80716101470918,3.7240917380007885,304.137140480077,107.08773223823721,96.0,0.0,0,,,,,,
188.80711471905587,3.7345079224210664,303.212536889975,106.70692308392603,96.0,0.0,0,,,,,,
189.80706842340257,3.7449241068413444,302.2757556330402,106.35713988322547,96.0,0.0,0,,,,,,
190.80702212774926,3.7553402912616223,301.3278374809627,106.03877124815172,96.0,0.0,0,,,,,,
191.806975832096,3.7657564756819006,300.3698355786149,105.75217088887989,96.0,0.0,0,,,,,,
192.80692953644265,3.7761726601021786,299.40281427399884,105.49765722076907,96.0,0.0,0,,,,,,
193.80688324078935,3.7865888445224565,298.4278479357465,105.27551301060026,96.0,0.0,0,,,,,,
194.8068369451361,3.7970050289427353,297.44601975948785,105.08598506242015,96.0,0.0,0,,,,,,
195.80679064948276,3.807421213363013,296.4584205644114,104.9292839433398,96.0,0.0,0,,,,,,
196.8067443538295,3.8178373977832916,295.466147581355,104.80558374959281,96.0,0.0,0,,,,,,
197.8066980581762,3.82825358220357,294.47030323377345,104.71502191311302,96.0,0.0,0,,,,,,
198.80665176252293,3.8386697666238483,293.47199391293697,104.65769904884648,96.0,0.0,0,,,,,,
199.8066517625229,3.849086433290515,292.47215463884345,104.67562740571745,96.0,0.0,0,,,,,,
200.80665176252288,3.8595030999571813,291.47231536474993,104.69355576258842,96.0,0.0,0,,,,,,
