Distance (in),Time (s),X (in),Y (in),Velocity (in/s),Orientation (deg),Touch,Way X (in),Way Y (in),Way Velocity (in/s),Way Orientation (deg),Way Turn Radius (in),Touch this Point
0.0,0.0,180.0,162.0,0.0,0.0,0,180.0,162.0,0.0,0.0,3.0,0.0
1.0000000000000033,0.1666666666666672,180.99227787671367,162.1240347345892,12.0,0.0,0,220.0,167.0,60.0,0.0,12.0,0
2.0000000000000067,0.25000000000000083,181.98455575342734,162.2480694691784,12.0,0.0,0,221.74,190.02,78.0,0.0,3.0,0
3.0000000000000098,0.3333333333333344,182.97683363014102,162.3721042037676,12.0,0.0,0,225.0,238.0,24.0,0.0,3.0,1
4.000000000000013,0.4166666666666681,183.9691115068547,162.4961389383568,12.0,0.0,0,230.84,187.47,78.0,0.0,5.0,0
5.000000000000017,0.5000000000000017,184.96138938356836,162.620173672946,12.0,0.0,0,245.88,147.27,84.0,0.0,15.0,0
6.00000000000002,0.5833333333333353,185.95366726028203,162.7442084075352,12.0,0.0,0,254.0,105.0,72.0,0.0,20.0,0.0
7.000000000000024,0.6666666666666689,186.9459451369957,162.8682431421244,12.0,0.0,0,282.0,85.0,84.0,0.0,20.0,0
8.000000000000027,0.7489422646023156,187.93822301370938,162.99227787671362,12.30854409061042,0.0,0,305.0,107.26,72.0,0.0,15.0,0.0
9.00000000000003,0.825407560876163,188.93050089042305,163.11631261130282,13.847112101936723,0.0,0,309.0,124.0,84.0,0.0,60.0,0
10.000000000000034,0.8938238785948684,189.92277876713672,163.24034734589202,15.385680113263026,0.0,0,313.0,145.0,84.0,0.0,3.0,0
11.000000000000037,0.9557243565308401,190.9150566438504,163.36438208048122,16.92424812458933,0.0,0,313.0,165.0,84.0,0.0,3.0,0
12.00000000000004,1.01224218421151,191.90733452056406,163.48841681507042,18.46281613591563,0.0,0,313.0,182.0,84.0,0.0,3.0,0
13.000000000000044,1.0642385856777261,192.89961239727774,163.61245154965962,20.001384147241932,0.0,0,313.0,199.0,78.0,0.0,3.0,0
14.000000000000048,1.1123834018501486,193.8918902739914,163.73648628424883,21.539952158568234,0.0,0,314.0,315.0,24.0,0.0,3.0,1
15.000000000000052,1.1572078858727488,194.88416815070508,163.86052101883803,23.078520169894535,0.0,0,320.0,200.0,78.0,0.0,5.0,0
16.000000000000053,1.1991404677003425,195.87644602741875,163.98455575342723,24.617088181220836,0.0,0,320.0,182.0,84.0,0.0,3.0,0
17.000000000000057,1.2385316809323246,196.86872390413242,164.10859048801643,26.155656192547138,0.0,0,320.0,165.0,84.0,0.0,3.0,0
18.00000000000006,1.2756719676939077,197.8610017808461,164.23262522260563,27.69422420387344,0.0,0,320.0,145.0,84.0,0.0,10.0,0
19.000000000000064,1.310804671387297,198.85327965755977,164.35665995719484,29.23279221519974,0.0,0,320.0,124.0,72.0,0.0,20.0,0.0
20.000000000000068,1.3441356979682049,199.84555753427344,164.48069469178404,30.771360226526042,0.0,0,331.0,101.64,84.0,0.0,30.0,1.0
21.00000000000007,1.3758408208134587,200.8378354109871,164.60472942637324,32.30992823785235,0.0,0,360.14,94.0,84.0,0.0,20.0,0.0
22.000000000000075,1.406071286782189,201.83011328770078,164.72876416096244,33.84849624917865,0.0,0,395.17,105.0,84.0,0.0,30.0,1.0
23.000000000000078,1.4349581764856425,202.82239116441446,164.85279889555164,35.38706426050496,0.0,0,408.0,133.0,66.0,0.0,3.0,0.0
24.00000000000008,1.4626158368400128,203.81466904112813,164.97683363014085,36.92563227183126,0.0,0,408.0,147.0,84.0,0.0,3.0,0
25.000000000000085,1.4891446130982864,204.8069469178418,165.10086836473005,38.46420028315757,0.0,0,408.0,165.6,84.0,0.0,3.0,0
26.00000000000009,1.5146330451895689,205.79922479455547,165.22490309931925,40.00276829448387,0.0,0,404.0,195.0,78.0,0.0,3.0,0
27.000000000000092,1.5391596496547653,206.79150267126914,165.34893783390845,41.54133630581018,0.0,0,403.75,270.0,24.0,0.0,3.0,1
28.000000000000096,1.5627943775939543,207.78378054798281,165.47297256849765,43.07990431713648,0.0,0,415.0,210.0,84.0,0.0,15.0,0
29.0000000000001,1.5855998168335228,208.7760584246965,165.59700730308685,44.618472328462786,0.0,0,444.5,195.45,108.0,0.0,3.0,0
30.000000000000103,1.6076321903361568,209.76833630141016,165.72104203767606,46.15704033978909,0.0,0,479.76,195.0,108.0,0.0,3.0,0
30.99961571354646,1.628934135990034,210.75887603181062,165.855439274504,47.69501710027063,0.0,0,540.0,195.0,0.0,0.0,3.0,0
31.999326386810935,1.6495620051986608,211.73706897615008,166.06174001101112,49.23313996273683,0.0,0,,,,,,
32.999037060075395,1.6695553383998871,212.69469554520796,166.3487466040945,50.771262825203,0.0,0,,,,,,
33.998747733339854,1.6889520086321204,213.62510940207258,166.71446710556137,52.30938568766918,0.0,0,,,,,,
34.99845840660431,1.7077865964456067,214.5218530776638,167.1563632591156,53.84750855013534,0.0,0,,,,,,
35.99816907986876,1.726090760797295,215.37870278832312,167.6713681169392,55.3856314126015,0.0,0,,,,,,
36.99787975313323,1.7438935591501354,216.18971163152753,168.25590732561827,56.923754275067694,0.0,0,,,,,,
37.99759042639767,1.7612217249022406,216.94925085992963,168.90592393368084,58.46187713753383,0.0,0,,,,,,
38.99730109966214,1.7781305944204937,217.6520489472658,169.61690654857063,59.78501952049224,0.0,0,,,,,,
39.9970117729266,1.7946693381525942,218.29322817499698,170.3839206476359,61.10816190345064,0.0,0,,,,,,
40.99672244619107,1.8108538127030684,218.86833848575645,171.20164282582178,62.431304286409066,0.0,0,,,,,,
41.996433119455524,1.8266988770735268,219.37338836864606,172.06439774237228,63.75444666936746,0.0,0,,,,,,
42.996143792719955,1.8422184746280363,219.80487256202485,172.96619751011625,65.07758905232582,0.0,0,,,,,,
43.99585446598443,1.857425706809842,220.15979638152015,173.90078325395882,66.40073143528424,0.0,0,,,,,,
44.99556513924889,1.8723328995859143,220.4356965044145,174.86166855014446,67.72387381824264,0.0,0,,,,,,
45.99556513924888,1.886955853345516,220.51106794739735,175.85882407742326,69.0473991324596,0.0,0,,,,,,
46.995565139248875,1.9013011700058813,220.5864393903802,176.85597960470207,70.37092444667657,0.0,0,,,,,,
47.99556513924887,1.9153791957820836,220.66181083336306,177.85313513198088,71.69444976089353,0.0,0,,,,,,
48.99556513924886,1.9291997091365278,220.73718227634592,178.85029065925968,73.0179750751105,0.0,0,,,,,,
49.99556513924885,1.942771961573614,220.81255371932878,179.8474461865385,74.34150038932746,0.0,0,,,,,,
50.995565139248846,1.9561047148350406,220.88792516231163,180.8446017138173,75.66502570354443,0.0,0,,,,,,
51.99556513924884,1.9692062748702261,220.9632966052945,181.8417572410961,76.9885510177614,0.0,0,,,,,,
52.99556513924883,1.9821104538361343,221.03866804827734,182.8389127683749,78.0,0.0,0,,,,,,
53.995565139248825,1.994930966656647,221.1140394912602,183.83606829565372,78.0,0.0,0,,,,,,
54.99556513924882,2.0077514794771596,221.18941093424306,184.83322382293252,78.0,0.0,0,,,,,,
55.99556513924881,2.0205719922976724,221.2647823772259,185.83037935021133,78.0,0.0,0,,,,,,
56.995565139248804,2.033392505118185,221.34015382020877,186.82753487749014,78.0,0.0,0,,,,,,
57.9955651392488,2.046213017938698,221.41552526319163,187.82469040476894,78.0,0.0,0,,,,,,
58.99556513924879,2.0590335307592107,221.49089670617448,188.82184593204775,78.0,0.0,0,,,,,,
59.99556513924878,2.0718540435797235,221.56626814915734,189.81900145932656,78.0,0.0,0,,,,,,
60.26124007097942,2.0752758900613544,221.74,190.02,77.28161953309295,0.0,0,,,,,,
61.26124007097942,2.088445979591762,221.80778868334622,191.01769970151855,74.57763665361148,0.0,0,,,,,,
62.26124007097942,2.1021023973273696,221.87557736669243,192.0153994030371,71.87365377413,0.0,0,,,,,,
63.26124007097942,2.1162824374299176,221.94336605003863,193.01309910455564,69.16967089464853,0.0,0,,,,,,
64.26124007097941,2.13102785496761,222.01115473338484,194.01079880607418,66.46568801516707,0.0,0,,,,,,
65.26124007097941,2.1463856069091176,222.07894341673105,195.00849850759272,63.7617051356856,0.0,0,,,,,,
66.26124007097941,2.1624087536402805,222.14673210007726,196.00619820911126,61.05772225620413,0.0,0,,,,,,
67.26124007097941,2.1791575646224963,222.21452078342347,197.0038979106298,58.35373937672266,0.0,0,,,,,,
68.26124007097941,2.1967008862958166,222.28230946676968,198.00159761214834,55.649756497241185,0.0,0,,,,,,
69.26124007097941,2.2151178505841442,222.35009815011588,198.9992973136669,52.94577361775971,0.0,0,,,,,,
70.26124007097941,2.234500031106394,222.4178868334621,199.99699701518543,50.24179073827824,0.0,0,,,,,,
71.26124007097941,2.2549541956631693,222.4856755168083,200.99469671670397,47.53780785879677,0.0,0,,,,,,
72.26124007097941,2.2766058644553095,222.5534642001545,201.9923964182225,44.833824979315295,0.0,0,,,,,,
73.26124007097941,2.299603974668161,222.62125288350072,202.99009611974105,42.12984209983382,0.0,0,,,,,,
74.26124007097941,2.324127091600821,222.68904156684692,203.9877958212596,39.42585922035235,0.0,0,,,,,,
75.26124007097941,2.350391825348445,222.75683025019313,204.98549552277814,36.72187634087088,0.0,0,,,,,,
76.25027353205164,2.378342695010751,222.8860270456536,205.96605422839613,34.04754679489727,0.0,0,,,,,,
77.24565032821214,2.4087806714208235,223.3089800200725,206.86710125700503,31.35606497944616,0.0,0,,,,,,
78.24102712437262,2.441948483730403,224.0034701805389,207.58016393542124,28.664583163995086,0.0,0,,,,,,
79.2364039205331,2.4783840246959814,224.8930438086799,208.0267439690667,25.973101348544013,0.0,1,,,,,,
80.23178071669358,2.5153010268693063,225.87977120655395,208.15767910040802,27.952013777933107,0.0,0,,,,,,
81.22715751285408,2.5496937787376135,226.85502739589333,207.95855519051779,29.93092620732226,0.0,0,,,,,,
82.22253430901456,2.5818853856386887,227.7114502191246,207.45129301552018,31.90983863671138,0.0,0,,,,,,
83.21791110517506,2.6121406479674483,228.35475942137498,206.691735093677,33.88875106610053,0.0,0,,,,,,
84.21791110517508,2.6408080690005935,228.46957007599798,205.69834770016678,35.876854904790065,0.0,0,,,,,,
85.21791110517509,2.6679297236094635,228.58438073062098,204.70496030665655,37.8649587434796,0.0,0,,,,,,
86.2179111051751,2.6936637807288513,228.69919138524398,203.7115729131463,39.85306258216913,0.0,0,,,,,,
87.21791110517512,2.7181453141787344,228.81400203986698,202.71818551963608,41.84116642085866,0.0,0,,,,,,
88.21791110517513,2.741490590303111,228.92881269448998,201.72479812612585,43.829270259548196,0.0,0,,,,,,
89.21791110517515,2.763800404734289,229.04362334911298,200.73141073261561,45.81737409823773,0.0,0,,,,,,
90.21791110517516,2.7851627105872323,229.15843400373598,199.73802333910538,47.80547793692726,0.0,0,,,,,,
91.21791110517518,2.8056547112877572,229.27324465835898,198.74463594559515,49.79358177561679,0.0,0,,,,,,
92.21791110517519,2.8253445437774176,229.38805531298198,197.75124855208492,51.781685614306326,0.0,0,,,,,,
93.2179111051752,2.8442926446800794,229.50286596760498,196.75786115857468,53.76978945299586,0.0,0,,,,,,
94.21791110517522,2.8625528684872625,229.61767662222798,195.76447376506445,55.75789329168539,0.0,0,,,,,,
95.21791110517523,2.880173409885122,229.73248727685097,194.77108637155422,57.745997130374924,0.0,0,,,,,,
96.21791110517525,2.8971975699969663,229.84729793147397,193.777698978044,59.73410096906446,0.0,0,,,,,,
97.21791110517526,2.9136643972004475,229.96210858609697,192.78431158453375,61.72220480775399,0.0,0,,,,,,
98.21791110517528,2.9296092263753035,230.07691924071997,191.79092419102352,63.71030864644352,0.0,0,,,,,,
99.21791110517529,2.945064135306569,230.19172989534297,190.7975367975133,65.69841248513305,0.0,0,,,,,,
100.2179111051753,2.960058333060834,230.30654054996597,189.80414940400306,67.68651632382259,0.0,0,,,,,,
101.21791110517532,2.974618492150658,230.42135120458897,188.81076201049282,69.67462016251213,0.0,0,,,,,,
102.21791110517533,2.988769033975495,230.53616185921197,187.8173746169826,71.66272400120167,0.0,0,,,,,,
102.67941597006987,2.995187806264091,230.84,187.47,72.13576086309403,0.0,0,,,,,,
103.67941597006987,3.0089527618459626,231.19040842842819,186.53340300380233,73.1607486755204,0.0,0,,,,,,
104.67941597006987,3.0225262108344553,231.54081685685637,185.59680600760467,74.18573648794676,0.0,0,,,,,,
105.67941597006987,3.035913408827277,231.89122528528455,184.660209011407,75.21072430037312,0.0,0,,,,,,
106.67941597006987,3.04911939800317,232.24163371371273,183.72361201520934,76.23571211279948,0.0,0,,,,,,
107.67941597006987,3.0621490185229288,232.5920421421409,182.78701501901168,77.26069992522584,0.0,0,,,,,,
108.67941597006987,3.0750069191791285,232.9424505705691,181.850418022814,78.2856877376522,0.0,0,,,,,,
109.67941597006987,3.087697567353214,233.29285899899727,180.91382102661635,79.31067555007856,0.0,0,,,,,,
110.67941597006987,3.1002252583333068,233.64326742742546,179.97722403041868,80.33566336250492,0.0,0,,,,,,
111.67941597006987,3.112594124041356,233.99367585585364,179.04062703422102,81.36065117493128,0.0,0,,,,,,
112.67941597006987,3.1248081412140065,234.34408428428182,178.10403003802335,82.38563898735764,0.0,0,,,,,,
113.67941597006987,3.136871139077708,234.69449271271,177.1674330418257,83.410626799784,0.0,0,,,,,,
114.67941597006987,3.1488178119874983,235.04490114113818,176.23083604562802,84.0,0.0,0,,,,,,
115.67941597006987,3.16072257389226,235.39530956956636,175.29423904943036,84.0,0.0,0,,,,,,
116.67941597006987,3.172627335797022,235.74571799799455,174.3576420532327,84.0,0.0,0,,,,,,
117.67941597006987,3.184532097701784,236.09612642642273,173.42104505703503,84.0,0.0,0,,,,,,
118.67941597006987,3.1964368596065458,236.4465348548509,172.48444806083737,84.0,0.0,0,,,,,,
119.67941597006987,3.2083416215113076,236.7969432832791,171.5478510646397,84.0,0.0,0,,,,,,
120.67941597006987,3.2202463834160695,237.14735171170727,170.61125406844204,84.0,0.0,0,,,,,,
121.67941597006987,3.2321511453208314,237.49776014013545,169.67465707224437,84.0,0.0,0,,,,,,
122.67941597006987,3.2440559072255932,237.84816856856364,168.7380600760467,84.0,0.0,0,,,,,,
123.67941597006987,3.255960669130355,238.19857699699182,167.80146307984904,84.0,0.0,0,,,,,,
124.67941597006987,3.267865431035117,238.54898542542,166.86486608365138,84.0,0.0,0,,,,,,
125.67941597006987,3.279770192939879,238.89939385384818,165.9282690874537,84.0,0.0,0,,,,,,
126.67941597006987,3.2916749548446407,239.24980228227636,164.99167209125605,84.0,0.0,0,,,,,,
127.67941597006987,3.3035797167494025,239.60021071070454,164.05507509505838,84.0,0.0,0,,,,,,
128.67941597006987,3.3154844786541644,239.95061913913273,163.11847809886072,84.0,0.0,0,,,,,,
129.67941597006987,3.3273892405589263,240.3010275675609,162.18188110266306,84.0,0.0,0,,,,,,
130.67941597006987,3.339294002463688,240.6514359959891,161.2452841064654,84.0,0.0,0,,,,,,
131.67941597006987,3.35119876436845,241.00184442441727,160.30868711026773,84.0,0.0,0,,,,,,
132.67941597006987,3.363103526273212,241.35225285284545,159.37209011407006,84.0,0.0,0,,,,,,
133.67941597006987,3.3750082881779737,241.70266128127363,158.4354931178724,84.0,0.0,0,,,,,,
134.67941597006987,3.3869130500827356,242.05306970970182,157.49889612167473,84.0,0.0,0,,,,,,
135.67941597006987,3.3988178119874974,242.40347813813,156.56229912547707,84.0,0.0,0,,,,,,
136.67941597006987,3.4107225738922593,242.75388656655818,155.6257021292794,84.0,0.0,0,,,,,,
137.67941597006987,3.422627335797021,243.10429499498636,154.68910513308174,84.0,0.0,0,,,,,,
138.67941597006987,3.434532097701783,243.45470342341454,153.75250813688407,84.0,0.0,0,,,,,,
139.67941597006987,3.446436859606545,243.80511185184272,152.8159111406864,84.0,0.0,0,,,,,,
140.67941597006987,3.4583416215113068,244.1555202802709,151.87931414448875,84.0,0.0,0,,,,,,
141.67941597006987,3.4702463834160686,244.5059287086991,150.94271714829108,84.0,0.0,0,,,,,,
142.67941597006987,3.4821511453208305,244.85633713712727,150.00612015209342,84.0,0.0,0,,,,,,
143.67941597006987,3.4940559072255923,245.20674556555545,149.06952315589575,84.0,0.0,0,,,,,,
144.67941597006987,3.505960669130354,245.55715399398363,148.1329261596981,84.0,0.0,0,,,,,,
145.600757980776,3.5169458394653197,245.88,147.27,83.74287200145206,0.0,0,,,,,,
146.600757980776,3.528907085210167,246.06864919963698,146.28795545952522,83.46379214233342,0.0,0,,,,,,
147.600757980776,3.5409083930340457,246.25729839927396,145.30591091905043,83.18471228321478,0.0,0,,,,,,
148.600757980776,3.552950032200515,246.44594759891095,144.32386637857564,82.90563242409614,0.0,0,,,,,,
149.600757980776,3.5650322746969336,246.63459679854793,143.34182183810086,82.6265525649775,0.0,0,,,,,,
150.600757980776,3.5771553952713186,246.82324599818492,142.35977729762607,82.34747270585886,0.0,0,,,,,,
151.600757980776,3.5893196714698354,247.0118951978219,141.37773275715128,82.06839284674022,0.0,0,,,,,,
152.600757980776,3.601525383674922,247.20054439745888,140.3956882166765,81.78931298762159,0.0,0,,,,,,
153.600757980776,3.6137728151440687,247.38919359709587,139.4136436762017,81.51023312850295,0.0,0,,,,,,
154.600757980776,3.626062252049259,247.57784279673285,138.4315991357269,81.23115326938431,0.0,0,,,,,,
155.600757980776,3.638393983517091,247.76649199636984,137.44955459525212,80.95207341026567,0.0,0,,,,,,
156.600757980776,3.6507683016695935,247.95514119600682,136.46751005477734,80.67299355114703,0.0,0,,,,,,
157.600757980776,3.6631855016657444,248.1437903956438,135.48546551430255,80.39391369202839,0.0,0,,,,,,
158.600757980776,3.6756458817437165,248.3324395952808,134.50342097382776,80.11483383290975,0.0,0,,,,,,
159.600757980776,3.688149743263857,248.52108879491777,133.52137643335297,79.83575397379111,0.0,0,,,,,,
160.600757980776,3.7006973907524188,248.70973799455476,132.53933189287818,79.55667411467248,0.0,0,,,,,,
161.600757980776,3.713289131946065,248.89838719419174,131.5572873524034,79.27759425555384,0.0,0,,,,,,
162.600757980776,3.725925277837151,249.08703639382873,130.5752428119286,78.9985143964352,0.0,0,,,,,,
163.600757980776,3.7386061427198163,249.2756855934657,129.59319827145382,78.71943453731656,0.0,0,,,,,,
164.600757980776,3.7513320442368854,249.4643347931027,128.61115373097903,78.44035467819792,0.0,0,,,,,,
165.600757980776,3.764103303427613,249.65298399273968,127.62910919050424,78.16127481907928,0.0,0,,,,,,
166.600757980776,3.776920244776277,249.84163319237666,126.64706465002945,77.88219495996064,0.0,0,,,,,,
167.600757980776,3.789783196261648,250.03028239201365,125.66502010955466,77.603115100842,0.0,0,,,,,,
168.600757980776,3.8026924894073475,250.21893159165063,124.68297556907987,77.32403524172337,0.0,0,,,,,,
169.600757980776,3.815648459333116,250.40758079128761,123.70093102860508,77.04495538260473,0.0,0,,,,,,
170.600757980776,3.8286514448070132,250.5962299909246,122.7188864881303,76.76587552348609,0.0,0,,,,,,
171.600757980776,3.8417017882985696,250.78487919056158,121.7368419476555,76.48679566436745,0.0,0,,,,,,
172.600757980776,3.8547998360329045,250.97352839019857,120.75479740718072,76.20771580524881,0.0,0,,,,,,
173.600757980776,3.8679459380458434,251.16217758983555,119.77275286670593,75.92863594613017,0.0,0,,,,,,
174.600757980776,3.8811404482400453,251.35082678947253,118.79070832623114,75.64955608701153,0.0,0,,,,,,
175.600757980776,3.8943837244421697,251.53947598910952,117.80866378575635,75.3704762278929,0.0,0,,,,,,
176.600757980776,3.907676128461102,251.7281251887465,116.82661924528156,75.09139636877426,0.0,0,,,,,,
177.600757980776,3.9210180261472654,251.9167743883835,115.84457470480677,74.81231650965562,0.0,0,,,,,,
178.600757980776,3.934409787453039,252.10542358802047,114.86253016433199,74.53323665053698,0.0,0,,,,,,
179.600757980776,3.94785178649431,252.29407278765746,113.8804856238572,74.25415679141834,0.0,0,,,,,,
180.600757980776,3.961344401613186,252.48272198729444,112.89844108338241,73.9750769322997,0.0,0,,,,,,
181.59993222168833,3.974876810561264,252.69348314849722,111.92174824700486,73.69622752591091,0.0,0,,,,,,
182.5998280582768,3.98847034871097,252.95291440080246,110.95609452575985,73.41717673670249,0.0,0,,,,,,
183.5997238948653,4.002115652814951,253.2602840023879,110.00461377868811,73.13812594749406,0.0,0,,,,,,
184.59961973145377,4.015813118643273,253.6148236893245,109.0696842121357,72.85907515828563,0.0,0,,,,,,
185.59951556804225,4.029563146522129,254.0156472970357,108.15364266311711,72.58002436907721,0.0,0,,,,,,
186.59941140463076,4.043366141404051,254.4617529752471,107.25877875843966,72.30097357986878,0.0,0,,,,,,
187.59930724121924,4.057222512939464,254.95202569209047,106.38732919182894,72.02192279066035,0.0,0,,,,,,
