Distance (in),Time (s),X (in),Y (in),Velocity (in/s),Orientation (deg),Touch,Way X (in),Way Y (in),Way Velocity (in/s),Way Orientation (deg),Way Turn Radius (in),Touch this Point
0.0,0.0,175.0,169.5,0.0,0.0,0,175.0,169.5,0.0,0.0,3.0,0.0
0.9999999999999979,0.16666666666666632,175.8606367429873,168.9907806007032,12.0,358.880836485062,0,198.07,155.85,84.0,330.0,3.0,0.0
1.9999999999999958,0.2499999999999995,176.72127348597462,168.4815612014064,12.0,357.76167297012404,0,312.37,100.91,84.0,330.0,10.0,0.0
2.999999999999994,0.33333333333333265,177.58191022896193,167.9723418021096,12.0,356.64250945518603,0,315.0,133.24,84.0,330.0,10.0,0
3.9999999999999916,0.4166666666666658,178.44254697194924,167.46312240281281,12.0,355.523345940248,0,300.76,220.97,84.0,330.0,5.0,1
4.999999999999989,0.4954640281263598,179.30318371493655,166.95390300351602,13.381560536427672,354.40418242531,0,380.28,176.0,84.0,330.0,5.0,0
5.999999999999988,0.5634001187352357,180.16382045792386,166.44468360421922,16.057872643713207,353.28501891037206,0,400.2,166.82,84.0,330.0,5.0,0
6.999999999999986,0.6208845030965922,181.02445720091117,165.93546420492243,18.734184750998743,352.16585539543405,0,478.84,126.0,84.0,330.0,3.0,0
7.999999999999984,0.6707043028764345,181.88509394389848,165.42624480562563,21.41049685828428,351.04669188049604,0,530.3,100.0,0.0,330.0,3.0,0
8.999999999999982,0.7146629497410012,182.7457306868858,164.91702540632883,24.086808965569816,349.9275283655581,0,,,,,,
9.99999999999998,0.753994370619824,183.6063674298731,164.40780600703204,26.763121072855352,348.8083648506201,0,,,,,,
10.999999999999979,0.7895799418911399,184.4670041728604,163.89858660773524,29.439433180140888,347.68920133568207,0,,,,,,
11.999999999999977,0.8220711156606022,185.32764091584772,163.38936720843844,32.11574528742642,346.57003782074406,0,,,,,,
12.999999999999975,0.8519629955285075,186.18827765883503,162.88014780914165,34.792057394711954,345.4508743058061,0,,,,,,
13.999999999999973,0.8796406620728643,187.04891440182234,162.37092840984485,37.468369501997486,344.3317107908681,0,,,,,,
14.999999999999972,0.9054095240279552,187.90955114480965,161.86170901054805,40.14468160928302,343.2125472759301,0,,,,,,
15.99999999999997,0.9295158787601369,188.77018788779696,161.35248961125126,42.82099371656855,342.0933837609921,0,,,,,,
16.999999999999968,0.9521612422964288,189.63082463078428,160.84327021195446,45.497305823854084,340.97422024605413,0,,,,,,
17.999999999999964,0.9735125850592183,190.49146137377159,160.33405081265767,48.17361793113962,339.8550567311161,0,,,,,,
18.99999999999996,0.9937098011861814,191.3520981167589,159.82483141336087,50.84993003842515,338.7358932161781,0,,,,,,
19.999999999999957,1.0128712626399667,192.2127348597462,159.31561201406407,53.52624214571068,337.61672970124016,0,,,,,,
20.999999999999954,1.0310980186569823,193.07337160273352,158.80639261476728,56.202554252996215,336.49756618630215,0,,,,,,
21.99999999999995,1.048477018580183,193.93400834572083,158.29717321547048,58.87886636028175,335.37840267136414,0,,,,,,
22.999999999999947,1.0650836185067971,194.79464508870814,157.78795381617368,61.55517846756728,334.2592391564262,0,,,,,,
23.999999999999943,1.0809835546067468,195.65528183169545,157.2787344168769,64.23149057485281,333.1400756414882,0,,,,,,
24.99999999999994,1.096234513723025,196.51591857468276,156.7695150175801,66.90780268213834,332.0209121265502,0,,,,,,
25.999999999999936,1.1108873960112138,197.37655531767007,156.2602956182833,69.58411478942386,330.9017486116122,0,,,,,,
26.805734461118565,1.1224127858495194,198.07,155.85,70.23492342491912,330.89579285774215,0,,,,,,
27.805734461118558,1.1365693149475213,198.97128913563685,155.4167819325294,71.04264441353328,330.8884011497323,0,,,,,,
28.80573446111855,1.1505658008678599,199.8725782712737,154.9835638650588,71.85036540214745,330.88100944172254,0,,,,,,
29.805734461118544,1.1644058218160196,200.77386740691057,154.55034579758822,72.65808639076161,330.8736177337127,0,,,,,,
30.805734461118536,1.17809283732319,201.67515654254743,154.11712773011763,73.46580737937578,330.86622602570293,0,,,,,,
31.80573446111853,1.191630193436798,202.57644567818429,153.68390966264704,74.27352836798994,330.8588343176931,0,,,,,,
32.805734461118526,1.2050211276303324,203.47773481382114,153.25069159517645,75.08124935660412,330.85144260968326,0,,,,,,
33.80573446111852,1.2182687734504825,204.379023949458,152.81747352770586,75.88897034521828,330.8440509016735,0,,,,,,
34.80573446111851,1.2313761649182784,205.28031308509486,152.38425546023527,76.69669133383245,330.83665919366365,0,,,,,,
35.805734461118504,1.2443462406996948,206.18160222073172,151.95103739276468,77.50441232244661,330.8292674856539,0,,,,,,
36.8057344611185,1.2571818480600592,207.08289135636858,151.51781932529408,78.31213331106078,330.82187577764404,0,,,,,,
37.80573446111849,1.2698857466155749,207.98418049200544,151.0846012578235,79.11985429967494,330.8144840696342,0,,,,,,
38.80573446111848,1.282460611894324,208.8854696276423,150.6513831903529,79.9275752882891,330.8070923616244,0,,,,,,
39.805734461118476,1.294909038718243,209.78675876327915,150.2181651228823,80.73529627690327,330.7997006536146,0,,,,,,
40.80573446111847,1.3072335444167642,210.688047898916,149.78494705541172,81.54301726551743,330.79230894560476,0,,,,,,
41.80573446111846,1.3194365718820797,211.58933703455287,149.35172898794113,82.3507382541316,330.784917237595,0,,,,,,
42.805734461118455,1.3315204924753006,212.49062617018973,148.91851092047054,83.15845924274576,330.77752552958515,0,,,,,,
43.80573446111845,1.343487608792161,213.3919153058266,148.48529285299995,83.96618023135993,330.7701338215753,0,,,,,,
44.80573446111844,1.3553947677050155,214.29320444146344,148.05207478552936,84.0,330.76274211356554,0,,,,,,
45.80573446111843,1.3672995296097774,215.1944935771003,147.61885671805877,84.0,330.7553504055557,0,,,,,,
46.805734461118426,1.3792042915145393,216.09578271273716,147.18563865058817,84.0,330.7479586975459,0,,,,,,
47.80573446111842,1.3911090534193011,216.99707184837402,146.75242058311758,84.0,330.7405669895361,0,,,,,,
48.80573446111841,1.403013815324063,217.89836098401088,146.319202515647,84.0,330.73317528152626,0,,,,,,
49.805734461118405,1.4149185772288249,218.79965011964774,145.8859844481764,84.0,330.7257835735165,0,,,,,,
50.8057344611184,1.4268233391335867,219.7009392552846,145.4527663807058,84.0,330.71839186550665,0,,,,,,
51.80573446111839,1.4387281010383486,220.60222839092145,145.01954831323522,84.0,330.71100015749687,0,,,,,,
52.805734461118384,1.4506328629431104,221.5035175265583,144.58633024576463,84.0,330.70360844948704,0,,,,,,
53.80573446111838,1.4625376248478723,222.40480666219517,144.15311217829404,84.0,330.6962167414772,0,,,,,,
54.80573446111837,1.4744423867526342,223.30609579783203,143.71989411082345,84.0,330.6888250334674,0,,,,,,
55.80573446111836,1.486347148657396,224.2073849334689,143.28667604335286,84.0,330.6814333254576,0,,,,,,
56.805734461118355,1.498251910562158,225.10867406910575,142.85345797588226,84.0,330.67404161744776,0,,,,,,
57.80573446111835,1.5101566724669198,226.0099632047426,142.42023990841167,84.0,330.666649909438,0,,,,,,
58.80573446111834,1.5220614343716816,226.91125234037946,141.98702184094108,84.0,330.65925820142814,0,,,,,,
59.805734461118334,1.5339661962764435,227.81254147601632,141.5538037734705,84.0,330.6518664934183,0,,,,,,
60.80573446111833,1.5458709581812053,228.71383061165318,141.1205857059999,84.0,330.64447478540853,0,,,,,,
61.80573446111832,1.5577757200859672,229.61511974729004,140.6873676385293,84.0,330.6370830773987,0,,,,,,
62.80573446111831,1.569680481990729,230.5164088829269,140.25414957105872,84.0,330.6296913693889,0,,,,,,
63.805734461118305,1.581585243895491,231.41769801856375,139.82093150358813,84.0,330.6222996613791,0,,,,,,
64.8057344611183,1.5934900058002528,232.3189871542006,139.38771343611754,84.0,330.61490795336925,0,,,,,,
65.8057344611183,1.6053947677050147,233.22027628983747,138.95449536864695,84.0,330.6075162453595,0,,,,,,
66.8057344611183,1.6172995296097765,234.12156542547433,138.52127730117635,84.0,330.60012453734964,0,,,,,,
67.8057344611183,1.6292042915145384,235.0228545611112,138.08805923370576,84.0,330.59273282933987,0,,,,,,
68.8057344611183,1.6411090534193002,235.92414369674805,137.65484116623517,84.0,330.58534112133003,0,,,,,,
69.8057344611183,1.653013815324062,236.8254328323849,137.22162309876458,84.0,330.5779494133202,0,,,,,,
70.8057344611183,1.664918577228824,237.72672196802176,136.788405031294,84.0,330.5705577053104,0,,,,,,
71.8057344611183,1.6768233391335858,238.62801110365862,136.3551869638234,84.0,330.5631659973006,0,,,,,,
72.8057344611183,1.6887281010383477,239.52930023929548,135.9219688963528,84.0,330.55577428929075,0,,,,,,
73.8057344611183,1.7006328629431096,240.43058937493234,135.48875082888222,84.0,330.548382581281,0,,,,,,
74.8057344611183,1.7125376248478714,241.3318785105692,135.05553276141163,84.0,330.54099087327114,0,,,,,,
75.8057344611183,1.7244423867526333,242.23316764620606,134.62231469394104,84.0,330.5335991652613,0,,,,,,
76.8057344611183,1.7363471486573951,243.1344567818429,134.18909662647044,84.0,330.52620745725153,0,,,,,,
77.8057344611183,1.748251910562157,244.03574591747977,133.75587855899985,84.0,330.5188157492417,0,,,,,,
78.8057344611183,1.7601566724669189,244.93703505311663,133.32266049152926,84.0,330.5114240412319,0,,,,,,
79.8057344611183,1.7720614343716807,245.8383241887535,132.88944242405867,84.0,330.5040323332221,0,,,,,,
80.8057344611183,1.7839661962764426,246.73961332439035,132.45622435658808,84.0,330.49664062521225,0,,,,,,
81.8057344611183,1.7958709581812045,247.6409024600272,132.0230062891175,84.0,330.4892489172025,0,,,,,,
82.8057344611183,1.8077757200859663,248.54219159566406,131.5897882216469,84.0,330.48185720919264,0,,,,,,
83.8057344611183,1.8196804819907282,249.44348073130092,131.1565701541763,84.0,330.47446550118286,0,,,,,,
84.8057344611183,1.83158524389549,250.34476986693778,130.72335208670572,84.0,330.46707379317303,0,,,,,,
85.8057344611183,1.843490005800252,251.24605900257464,130.29013401923513,84.0,330.4596820851632,0,,,,,,
86.8057344611183,1.8553947677050138,252.1473481382115,129.85691595176453,84.0,330.4522903771534,0,,,,,,
87.8057344611183,1.8672995296097756,253.04863727384836,129.42369788429394,84.0,330.4448986691436,0,,,,,,
88.8057344611183,1.8792042915145375,253.94992640948522,128.99047981682335,84.0,330.43750696113375,0,,,,,,
89.8057344611183,1.8911090534192994,254.85121554512207,128.55726174935276,84.0,330.430115253124,0,,,,,,
90.8057344611183,1.9030138153240612,255.75250468075893,128.12404368188217,84.0,330.42272354511414,0,,,,,,
91.80573446111832,1.9149185772288233,256.6537938163958,127.69082561441158,84.0,330.4153318371043,0,,,,,,
92.80573446111833,1.9268233391335854,257.5550829520327,127.25760754694099,84.0,330.4079401290945,0,,,,,,
93.80573446111835,1.9387281010383475,258.4563720876696,126.8243894794704,84.0,330.4005484210847,0,,,,,,
94.80573446111836,1.9506328629431096,259.3576612233065,126.3911714119998,84.0,330.3931567130749,0,,,,,,
95.80573446111838,1.9625376248478716,260.25895035894337,125.95795334452922,84.0,330.3857650050651,0,,,,,,
96.80573446111839,1.9744423867526337,261.16023949458025,125.52473527705862,84.0,330.37837329705525,0,,,,,,
97.8057344611184,1.9863471486573958,262.06152863021714,125.09151720958803,84.0,330.37098158904547,0,,,,,,
98.80573446111842,1.998251910562158,262.962817765854,124.65829914211744,84.0,330.36358988103564,0,,,,,,
99.80573446111843,2.0101566724669198,263.8641069014909,124.22508107464685,84.0,330.35619817302586,0,,,,,,
100.80573446111845,2.0220614343716816,264.7653960371278,123.79186300717626,84.0,330.348806465016,0,,,,,,
101.80573446111846,2.0339661962764435,265.6666851727647,123.35864493970567,84.0,330.3414147570062,0,,,,,,
102.80573446111848,2.0458709581812053,266.5679743084016,122.92542687223508,84.0,330.3340230489964,0,,,,,,
103.80573446111849,2.057775720085967,267.46926344403846,122.49220880476449,84.0,330.3266313409866,0,,,,,,
104.8057344611185,2.069680481990729,268.37055257967535,122.0589907372939,84.0,330.31923963297675,0,,,,,,
105.80573446111852,2.081585243895491,269.27184171531223,121.6257726698233,84.0,330.31184792496697,0,,,,,,
106.80573446111853,2.093490005800253,270.1731308509491,121.19255460235271,84.0,330.30445621695713,0,,,,,,
107.80573446111855,2.1053947677050147,271.074419986586,120.75933653488212,84.0,330.2970645089473,0,,,,,,
108.80573446111856,2.1172995296097765,271.9757091222229,120.32611846741153,84.0,330.2896728009375,0,,,,,,
109.80573446111858,2.1292042915145384,272.8769982578598,119.89290039994094,84.0,330.2822810929277,0,,,,,,
110.80573446111859,2.1411090534193002,273.77828739349667,119.45968233247035,84.0,330.2748893849179,0,,,,,,
111.8057344611186,2.153013815324062,274.67957652913356,119.02646426499976,84.0,330.2674976769081,0,,,,,,
112.80573446111862,2.164918577228824,275.58086566477044,118.59324619752917,84.0,330.26010596889824,0,,,,,,
113.80573446111863,2.176823339133586,276.48215480040733,118.16002813005858,84.0,330.25271426088847,0,,,,,,
114.80573446111865,2.1887281010383477,277.3834439360442,117.72681006258799,84.0,330.24532255287863,0,,,,,,
115.80573446111866,2.2006328629431096,278.2847330716811,117.2935919951174,84.0,330.23793084486886,0,,,,,,
116.80573446111867,2.2125376248478714,279.186022207318,116.8603739276468,84.0,330.230539136859,0,,,,,,
117.80573446111869,2.2244423867526333,280.0873113429549,116.42715586017621,84.0,330.2231474288492,0,,,,,,
118.8057344611187,2.236347148657395,280.98860047859176,115.99393779270562,84.0,330.2157557208394,0,,,,,,
119.80573446111872,2.248251910562157,281.88988961422865,115.56071972523503,84.0,330.2083640128296,0,,,,,,
120.80573446111873,2.260156672466919,282.79117874986554,115.12750165776444,84.0,330.20097230481974,0,,,,,,
121.80573446111875,2.2720614343716807,283.6924678855024,114.69428359029385,84.0,330.19358059680997,0,,,,,,
122.80573446111876,2.2839661962764426,284.5937570211393,114.26106552282326,84.0,330.18618888880013,0,,,,,,
123.80573446111877,2.2958709581812045,285.4950461567762,113.82784745535267,84.0,330.1787971807903,0,,,,,,
124.80573446111879,2.3077757200859663,286.3963352924131,113.39462938788208,84.0,330.1714054727805,0,,,,,,
125.8057344611188,2.319680481990728,287.29762442804997,112.96141132041149,84.0,330.1640137647707,0,,,,,,
126.80573446111882,2.33158524389549,288.19891356368686,112.5281932529409,84.0,330.1566220567609,0,,,,,,
127.80573446111883,2.343490005800252,289.10020269932375,112.0949751854703,84.0,330.1492303487511,0,,,,,,
128.80573446111885,2.3553947677050138,290.00149183496063,111.66175711799971,84.0,330.14183864074124,0,,,,,,
129.80573446111887,2.367299529609776,290.9027809705975,111.22853905052912,84.0,330.13444693273146,0,,,,,,
130.8057344611189,2.3792042915145384,291.8040701062344,110.79532098305853,84.0,330.12705522472163,0,,,,,,
131.80573446111893,2.3911090534193007,292.7053592418713,110.36210291558794,84.0,330.11966351671185,0,,,,,,
132.80573446111896,2.403013815324063,293.6066483775082,109.92888484811735,84.0,330.112271808702,0,,,,,,
133.805734461119,2.4149185772288253,294.50793751314507,109.49566678064676,84.0,330.1048801006922,0,,,,,,
134.80573446111902,2.4268233391335876,295.40922664878195,109.06244871317617,84.0,330.0974883926824,0,,,,,,
135.80573446111904,2.43872810103835,296.31051578441884,108.62923064570558,84.0,330.0900966846726,0,,,,,,
136.80573446111907,2.4506328629431122,297.2118049200557,108.19601257823498,84.0,330.08270497666274,0,,,,,,
137.8057344611191,2.4625376248478745,298.1130940556926,107.7627945107644,84.0,330.07531326865296,0,,,,,,
138.80573446111913,2.474442386752637,299.0143831913295,107.3295764432938,84.0,330.06792156064313,0,,,,,,
139.80410423647635,2.4863277412211753,299.92560635567673,106.92163704448087,84.0,330.06054190277786,0,,,,,,
140.8036876218899,2.4982275434284795,300.87304066222276,106.60299119220207,84.0,330.05315327426143,0,,,,,,
141.80327100730347,2.5101273456357838,301.8475532476967,106.380522845807,84.0,330.045764645745,0,,,,,,
142.80285439271708,2.522027147843089,302.8394071044755,106.25645483547457,84.0,330.0383760172286,0,,,,,,
143.80243777813058,2.5339269500503927,303.8386919566855,106.23202680775263,84.0,330.0309873887121,0,,,,,,
144.8020211635442,2.545826752257698,304.83542328040323,106.30748283941931,84.0,330.0235987601957,0,,,,,,
145.80160454895773,2.5577265544650016,305.81964206571746,106.48206899874866,84.0,330.01621013167926,0,,,,,,
146.8011879343713,2.5696263566723063,306.78151432386494,106.75404087854717,84.0,330.00882150316284,0,,,,,,
147.8007713197849,2.581526158879611,307.7114293451949,107.12068102569386,84.0,330.00143287464635,0,,,,,,
148.80035470519846,2.5934259610869153,308.6000957262033,107.57832609303352,84.0,330.00138084508376,0,,,,,,
149.79993809061205,2.60532576329422,309.4386342061651,108.12240344233066,84.0,330.0013288155211,0,,,,,,
150.79952147602557,2.6172255655015237,310.21866638577245,108.74747683255919,84.0,330.00127678595845,0,,,,,,
151.79910486143916,2.6291253677088284,310.9323984413312,109.4473007370257,84.0,330.0012247563958,0,,,,,,
152.79868824685272,2.6410251699161327,311.57269899807056,110.2148827466078,84.0,330.0011727268332,0,,,,,,
153.7982716322663,2.6529249721234374,312.13317038448287,111.04255343559463,84.0,330.00112069727055,0,,,,,,
154.7978550176799,2.664824774330742,312.6082125557423,111.92204299205338,84.0,330.0010686677079,0,,,,,,
155.79743840309345,2.6767245765380463,312.9930790475016,112.8445638470565,84.0,330.00101663814524,0,,,,,,
156.797021788507,2.6886243787453505,313.28392440099515,113.80089847716567,84.0,330.00096460858265,0,,,,,,
157.797021788507,2.7005291406501124,313.36500515627205,114.79760601256596,84.0,330.0009125573347,0,,,,,,
158.797021788507,2.7124339025548743,313.44608591154895,115.79431354796625,84.0,330.0008605060867,0,,,,,,
159.797021788507,2.724338664459636,313.52716666682585,116.79102108336654,84.0,330.00080845483876,0,,,,,,
160.797021788507,2.736243426364398,313.60824742210275,117.78772861876683,84.0,330.00075640359086,0,,,,,,
161.797021788507,2.74814818826916,313.68932817737965,118.78443615416712,84.0,330.0007043523429,0,,,,,,
162.797021788507,2.7600529501739217,313.77040893265655,119.78114368956741,84.0,330.00065230109493,0,,,,,,
163.797021788507,2.7719577120786836,313.85148968793345,120.7778512249677,84.0,330.00060024984697,0,,,,,,
164.797021788507,2.7838624739834454,313.93257044321035,121.774558760368,84.0,330.00054819859906,0,,,,,,
165.797021788507,2.7957672358882073,314.01365119848725,122.77126629576829,84.0,330.0004961473511,0,,,,,,
166.797021788507,2.807671997792969,314.09473195376415,123.76797383116858,84.0,330.00044409610314,0,,,,,,
167.797021788507,2.819576759697731,314.17581270904105,124.76468136656887,84.0,330.0003920448552,0,,,,,,
168.797021788507,2.831481521602493,314.25689346431795,125.76138890196916,84.0,330.00033999360727,0,,,,,,
169.797021788507,2.8433862835072548,314.33797421959486,126.75809643736945,84.0,330.0002879423593,0,,,,,,
170.797021788507,2.8552910454120166,314.41905497487176,127.75480397276974,84.0,330.00023589111134,0,,,,,,
171.797021788507,2.8671958073167785,314.50013573014866,128.75151150817004,84.0,330.0001838398634,0,,,,,,
172.797021788507,2.8791005692215403,314.58121648542556,129.74821904357034,84.0,330.0001317886155,0,,,,,,
173.797021788507,2.891005331126302,314.66229724070246,130.74492657897065,84.0,330.0000797373675,0,,,,,,
174.797021788507,2.902910093031064,314.74337799597936,131.74163411437095,84.0,330.00002768611955,0,,,,,,
175.797021788507,2.914814854935826,314.82445875125626,132.73834164977126,84.0,329.9999756348716,0,,,,,,
176.32850634177714,2.9211420519985656,315.0,133.24,84.0,329.99997578724356,0,,,,,,
177.32850634177714,2.9330468139033274,314.8397806937247,134.22708144238288,84.0,329.99997607393476,0,,,,,,
178.32850634177714,2.9449515758080893,314.67956138744944,135.21416288476576,84.0,329.999976360626,0,,,,,,
179.32850634177714,2.956856337712851,314.51934208117416,136.20124432714863,84.0,329.9999766473172,0,,,,,,
