Distance (in),Time (s),X (in),Y (in),Velocity (in/s),Orientation (deg),Touch,Way X (in),Way Y (in),Way Velocity (in/s),Way Orientation (deg),Way Turn Radius (in),Touch this Point
0.0,0.0,149.0,162.0,0.0,0.0,0,149.0,162.0,0.0,0.0,3.0,0.0
1.0,0.16666666666666666,150.0,162.0,12.0,0.0,0,165.0,162.0,84.0,0.0,3.0,0
2.0,0.25,151.0,162.0,12.0,0.0,0,233.99,162.0,84.0,0.0,15.0,0
3.0,0.3333333333333333,152.0,162.0,12.0,0.0,0,232.0,132.0,84.0,0.0,15.0,0
4.0,0.4106836025229591,153.0,162.0,13.856406460551018,0.0,0,293.72,132.0,84.0,0.0,10.0,0
5.0,0.47483363243291754,154.0,162.0,17.32050807568877,0.0,0,284.0,157.0,84.0,0.0,20.0,0
6.0,0.5273200205410653,155.0,162.0,20.784609690826525,0.0,0,278.0,200.0,84.0,0.0,25.0,0
7.0,0.5717315797094981,156.0,162.0,24.248711305964278,0.0,0,297.0,235.0,84.0,0.0,15.0,0
8.0,0.6102215976554731,157.0,162.0,27.71281292110203,0.0,0,360.17,235.0,144.0,0.0,3.0,0
9.0,0.6441833781960393,158.0,162.0,31.176914536239785,0.0,0,426.61,235.0,240.0,0.0,3.0,0
10.0,0.6745702344691775,159.0,162.0,34.64101615137754,0.0,0,468.66,235.0,240.0,0.0,3.0,0
11.0,0.7020631044305883,160.0,162.0,38.1051177665153,0.0,0,540.77,235.0,0.0,0.0,3.0,0
12.0,0.7271652900475285,161.0,162.0,41.569219381653056,0.0,0,,,,,,
13.0,0.7502593008151135,162.0,162.0,45.03332099679081,0.0,0,,,,,,
14.0,0.771642644118433,163.0,162.0,48.49742261192857,0.0,0,,,,,,
15.0,0.7915512740904891,164.0,162.0,51.96152422706633,0.0,0,,,,,,
16.0,0.8105962979946937,165.0,162.0,53.05278345035594,0.0,0,,,,,,
17.0,0.829253566799336,166.0,162.0,54.14404267364555,0.0,0,,,,,,
18.0,0.8475385547726314,167.0,162.0,55.23530189693516,0.0,0,,,,,,
19.0,0.8654658279994363,168.0,162.0,56.326561120224774,0.0,0,,,,,,
20.0,0.883049114085858,169.0,162.0,57.417820343514386,0.0,0,,,,,,
21.0,0.9003013653023333,170.0,162.0,58.509079566804,0.0,0,,,,,,
22.0,0.9172348158926705,171.0,162.0,59.60033879009361,0.0,0,,,,,,
23.0,0.9338610341841544,172.0,162.0,60.69159801338322,0.0,0,,,,,,
24.0,0.9501909700545904,173.0,162.0,61.78285723667283,0.0,0,,,,,,
25.0,0.9662349982440377,174.0,162.0,62.874116459962444,0.0,0,,,,,,
26.0,0.9820029579402323,175.0,162.0,63.965375683252056,0.0,0,,,,,,
27.0,0.9975041890159028,176.0,162.0,65.05663490654166,0.0,0,,,,,,
28.0,1.012747565252142,177.0,162.0,66.14789412983127,0.0,0,,,,,,
29.0,1.0277415248437254,178.0,162.0,67.23915335312088,0.0,0,,,,,,
30.0,1.0424940984489222,179.0,162.0,68.3304125764105,0.0,0,,,,,,
31.0,1.0570129350172264,180.0,162.0,69.4216717997001,0.0,0,,,,,,
32.0,1.07130532560295,181.0,162.0,70.51293102298972,0.0,0,,,,,,
33.0,1.085378225350269,182.0,162.0,71.60419024627933,0.0,0,,,,,,
34.0,1.0992382738156592,183.0,162.0,72.69544946956894,0.0,0,,,,,,
35.0,1.1128918137763573,184.0,162.0,73.78670869285855,0.0,0,,,,,,
36.0,1.1263449086582038,185.0,162.0,74.87796791614817,0.0,0,,,,,,
37.0,1.1396033587027208,186.0,162.0,75.96922713943778,0.0,0,,,,,,
38.0,1.1526727159813104,187.0,162.0,77.06048636272739,0.0,0,,,,,,
39.0,1.1655582983538417,188.0,162.0,78.151745586017,0.0,0,,,,,,
40.0,1.178265202459453,189.0,162.0,79.24300480930661,0.0,0,,,,,,
41.0,1.1907983158189845,190.0,162.0,80.33426403259622,0.0,0,,,,,,
42.0,1.2031623281209618,191.0,162.0,81.42552325588584,0.0,0,,,,,,
43.0,1.215361741756342,192.0,162.0,82.51678247917545,0.0,0,,,,,,
44.0,1.2274008816612438,193.0,162.0,83.60804170246506,0.0,0,,,,,,
45.0,1.2393334833412417,194.0,162.0,84.0,0.0,0,,,,,,
46.0,1.2512382452460036,195.0,162.0,84.0,0.0,0,,,,,,
47.0,1.2631430071507654,196.0,162.0,84.0,0.0,0,,,,,,
48.0,1.2750477690555273,197.0,162.0,84.0,0.0,0,,,,,,
49.0,1.2869525309602892,198.0,162.0,84.0,0.0,0,,,,,,
50.0,1.298857292865051,199.0,162.0,84.0,0.0,0,,,,,,
51.0,1.310762054769813,200.0,162.0,84.0,0.0,0,,,,,,
52.0,1.3226668166745748,201.0,162.0,84.0,0.0,0,,,,,,
53.0,1.3345715785793366,202.0,162.0,84.0,0.0,0,,,,,,
54.0,1.3464763404840985,203.0,162.0,84.0,0.0,0,,,,,,
55.0,1.3583811023888603,204.0,162.0,84.0,0.0,0,,,,,,
56.0,1.3702858642936222,205.0,162.0,84.0,0.0,0,,,,,,
57.0,1.382190626198384,206.0,162.0,84.0,0.0,0,,,,,,
58.0,1.394095388103146,207.0,162.0,84.0,0.0,0,,,,,,
59.0,1.4060001500079078,208.0,162.0,84.0,0.0,0,,,,,,
60.0,1.4179049119126697,209.0,162.0,84.0,0.0,0,,,,,,
61.0,1.4298096738174315,210.0,162.0,84.0,0.0,0,,,,,,
62.0,1.4417144357221934,211.0,162.0,84.0,0.0,0,,,,,,
63.0,1.4536191976269552,212.0,162.0,84.0,0.0,0,,,,,,
64.0,1.465523959531717,213.0,162.0,84.0,0.0,0,,,,,,
65.0,1.477428721436479,214.0,162.0,84.0,0.0,0,,,,,,
66.0,1.4893334833412408,215.0,162.0,84.0,0.0,0,,,,,,
67.0,1.5012382452460027,216.0,162.0,84.0,0.0,0,,,,,,
68.0,1.5131430071507646,217.0,162.0,84.0,0.0,0,,,,,,
68.99999987955727,1.5250477676216845,217.99999987840317,161.9999519565075,84.0,0.0,0,,,,,,
69.99981470465987,1.5369503250633822,218.99917176743608,161.96410198215113,84.0,0.0,0,,,,,,
70.99962952976247,1.54885288250508,219.99373586842054,161.8617695164918,84.0,0.0,0,,,,,,
71.99944435486509,1.5607554399467778,220.97927353336334,161.69340920206443,84.0,0.0,0,,,,,,
72.9992591799677,1.5726579973884756,221.9514062169086,161.45976902983787,84.0,0.0,0,,,,,,
73.9990740050703,1.5845605548301733,222.90581492933305,161.1618870160417,84.0,0.0,0,,,,,,
74.9988888301729,1.596463112271871,223.83825942494744,160.80108659046908,84.0,0.0,0,,,,,,
75.9987036552755,1.6083656697135689,224.74459704065416,160.37897071674482,84.0,0.0,0,,,,,,
76.99851848037812,1.6202682271552666,225.62080110096508,159.8974147706808,84.0,0.0,0,,,,,,
77.99833330548073,1.6321707845969644,226.4629788077097,159.35855820835894,84.0,0.0,0,,,,,,
78.99814813058335,1.6440733420386622,227.26738853495343,158.76479506095868,84.0,0.0,0,,,,,,
79.99796295568595,1.65597589948036,228.03045645228804,158.11876329855875,84.0,0.0,0,,,,,,
80.99777778078857,1.6678784569220577,228.7487924026404,157.42333311016716,84.0,0.0,0,,,,,,
81.99759260589117,1.6797810143637555,229.41920496405757,156.68159415204983,84.0,0.0,0,,,,,,
82.99740743099379,1.6916835718054533,230.03871562855178,155.8968418210097,84.0,0.0,0,,,,,,
83.99722225609638,1.7035861292471508,230.60457203501153,155.07256261360277,84.0,0.0,0,,,,,,
84.997037081199,1.7154886866888486,231.11426019738764,154.2124186363358,84.0,0.0,0,,,,,,
85.9968519063016,1.7273912441305463,231.56551567382704,153.32023133566491,84.0,0.0,0,,,,,,
86.9966667314042,1.7392938015722441,231.95633362713176,152.39996452007844,84.0,0.0,0,,,,,,
87.99648155650682,1.7511963590139419,232.2849777318469,151.45570674969423,84.0,0.0,0,,,,,,
88.99629638160944,1.7630989164556397,232.54998788840484,150.49165317161047,84.0,0.0,0,,,,,,
89.99611120671204,1.7750014738973374,232.75018671005364,149.51208688171204,84.0,0.0,0,,,,,,
90.99592603181465,1.7869040313390352,232.88468475374924,148.5213598957381,84.0,0.0,0,,,,,,
91.99574085691725,1.798806588780733,232.95288447177165,147.5238738141527,84.0,0.0,0,,,,,,
92.99231070475928,1.810670515540757,233.03530725321713,146.53071826403647,84.0,0.0,0,,,,,,
93.99212552986188,1.8225730729824547,233.0998742115672,145.5329904492571,84.0,0.0,0,,,,,,
94.99194035496451,1.8344756304241527,233.23076366901168,144.54178026245268,84.0,0.0,0,,,,,,
95.99175518006712,1.8463781878658505,233.42739411005257,143.5614914508512,84.0,0.0,0,,,,,,
96.99157000516972,1.8582807453075483,233.68889194524218,142.59647924021027,84.0,0.0,0,,,,,,
97.99138483027234,1.870183302749246,234.01409539236496,141.6510309854261,84.0,0.0,0,,,,,,
98.99119965537493,1.8820858601909436,234.40155963800208,140.72934712267934,84.0,0.0,0,,,,,,
99.99101448047756,1.8939884176326416,234.84956325654636,139.83552250774292,84.0,0.0,0,,,,,,
100.99082930558018,1.9058909750743394,235.3561158581495,138.97352822336276,84.0,0.0,0,,,,,,
101.99064413068278,1.9177935325160371,235.91896693162343,138.14719393653678,84.0,0.0,0,,,,,,
102.99045895578539,1.929696089957735,236.53561584300817,137.36019088407576,84.0,0.0,0,,,,,,
103.990273780888,1.9415986473994327,237.2033229453849,136.61601556203757,84.0,0.0,0,,,,,,
104.99008860599061,1.9535012048411304,237.9191217505755,135.9179741914995,84.0,0.0,0,,,,,,
105.98990343109321,1.9654037622828282,238.67983210865196,135.26916802968373,84.0,0.0,0,,,,,,
106.98971825619584,1.9773063197245262,239.48207433670217,134.67247959169615,84.0,0.0,0,,,,,,
107.98953308129845,1.989208877166224,240.32228423408023,134.1305598440924,84.0,0.0,0,,,,,,
108.98934790640104,2.0011114346079215,241.19672891743227,133.64581642716723,84.0,0.0,0,,,,,,
109.98916273150365,2.0130139920496193,242.1015234051453,133.2204029582936,84.0,0.0,0,,,,,,
110.98897755660626,2.024916549491317,243.032647877538,132.8562094638345,84.0,0.0,0,,,,,,
111.98879238170886,2.036819106933015,243.98596553611014,132.5548539821364,84.0,0.0,0,,,,,,
112.98860720681148,2.0487216643747126,244.957240982505,132.31767537491083,84.0,0.0,0,,,,,,
113.98842203191407,2.06062422181641,245.94215903553126,132.14572737894144,84.0,0.0,0,,,,,,
114.98823685701667,2.0725267792581077,246.93634390264407,132.03977392454354,84.0,0.0,0,,,,,,
115.98823685701667,2.0844315411628696,247.93634390264407,132.03977392454354,84.0,0.0,0,,,,,,
116.98823685701667,2.0963363030676314,248.93634390264407,132.03977392454354,84.0,0.0,0,,,,,,
117.98823685701667,2.1082410649723933,249.93634390264407,132.03977392454354,84.0,0.0,0,,,,,,
118.98823685701667,2.120145826877155,250.93634390264407,132.03977392454354,84.0,0.0,0,,,,,,
119.98823685701667,2.132050588781917,251.93634390264407,132.03977392454354,84.0,0.0,0,,,,,,
120.98823685701667,2.143955350686679,252.93634390264407,132.03977392454354,84.0,0.0,0,,,,,,
121.98823685701667,2.1558601125914407,253.93634390264407,132.03977392454354,84.0,0.0,0,,,,,,
122.98823685701667,2.1677648744962026,254.93634390264407,132.03977392454354,84.0,0.0,0,,,,,,
123.98823685701667,2.1796696364009644,255.93634390264407,132.03977392454354,84.0,0.0,0,,,,,,
124.98823685701667,2.1915743983057263,256.93634390264407,132.03977392454354,84.0,0.0,0,,,,,,
125.98823685701667,2.203479160210488,257.93634390264407,132.03977392454354,84.0,0.0,0,,,,,,
126.98823685701667,2.21538392211525,258.93634390264407,132.03977392454354,84.0,0.0,0,,,,,,
127.98823685701667,2.227288684020012,259.93634390264407,132.03977392454354,84.0,0.0,0,,,,,,
128.98823685701666,2.2391934459247738,260.93634390264407,132.03977392454354,84.0,0.0,0,,,,,,
129.98823685701666,2.2510982078295356,261.93634390264407,132.03977392454354,84.0,0.0,0,,,,,,
130.98823685701666,2.2630029697342975,262.93634390264407,132.03977392454354,84.0,0.0,0,,,,,,
131.98823685701666,2.2749077316390593,263.93634390264407,132.03977392454354,84.0,0.0,0,,,,,,
132.98823685701666,2.286812493543821,264.93634390264407,132.03977392454354,84.0,0.0,0,,,,,,
133.98823685701666,2.298717255448583,265.93634390264407,132.03977392454354,84.0,0.0,0,,,,,,
134.98823685701666,2.310622017353345,266.93634390264407,132.03977392454354,84.0,0.0,0,,,,,,
135.98823685701666,2.322526779258107,267.93634390264407,132.03977392454354,84.0,0.0,0,,,,,,
136.98823685701666,2.3344315411628687,268.93634390264407,132.03977392454354,84.0,0.0,0,,,,,,
137.98823685701666,2.3463363030676305,269.93634390264407,132.03977392454354,84.0,0.0,0,,,,,,
138.98823685701666,2.3582410649723924,270.93634390264407,132.03977392454354,84.0,0.0,0,,,,,,
139.98823685701666,2.3701458268771542,271.93634390264407,132.03977392454354,84.0,0.0,0,,,,,,
140.98823685701666,2.382050588781916,272.93634390264407,132.03977392454354,84.0,0.0,0,,,,,,
141.98823685701666,2.393955350686678,273.93634390264407,132.03977392454354,84.0,0.0,0,,,,,,
142.98823685701666,2.40586011259144,274.93634390264407,132.03977392454354,84.0,0.0,0,,,,,,
143.98823685701666,2.4177648744962017,275.93634390264407,132.03977392454354,84.0,0.0,0,,,,,,
144.98823685701666,2.4296696364009636,276.93634390264407,132.03977392454354,84.0,0.0,0,,,,,,
145.98823685701666,2.4415743983057254,277.93634390264407,132.03977392454354,84.0,0.0,0,,,,,,
146.98823685701666,2.4534791602104873,278.93634390264407,132.03977392454354,84.0,0.0,0,,,,,,
147.988662121747,2.4653889847906107,279.93675699105444,132.03483805096303,84.0,0.0,0,,,,,,
148.98824550716057,2.477288786997915,280.9274466556769,132.1678829035697,84.0,0.0,0,,,,,,
149.98782889257413,2.4891885892052192,281.8999046762711,132.3991670201381,84.0,0.0,0,,,,,,
150.9874122779877,2.5010883914125235,282.8444145737472,132.7263794862278,84.0,0.0,0,,,,,,
151.98699566340125,2.5129881936198277,283.7515391174231,133.14625090303977,84.0,0.0,0,,,,,,
152.9865790488148,2.524887995827132,284.61221461871384,133.6545860541682,84.0,0.0,0,,,,,,
153.98616243422836,2.536787798034436,285.417841492512,134.2463058228163,84.0,0.0,0,,,,,,
154.98574581964195,2.548687600241741,286.16037018139957,134.9154979406523,84.0,0.0,0,,,,,,
155.9853292050555,2.560587402449045,286.83238158416435,135.65547606124028,84.0,0.0,0,,,,,,
156.9849125904691,2.57248720465635,287.4271611850075,136.45884656780356,84.0,0.0,0,,,,,,
157.98449597588265,2.584387006863654,287.9387661427653,137.31758244779954,84.0,0.0,0,,,,,,
158.98407936129624,2.5962868090709588,288.362084669814,138.22310349617567,84.0,0.0,0,,,,,,
159.9836627467098,2.608186611278263,288.6928871073618,139.16636204594198,84.0,0.0,0,,,,,,
160.98324613212338,2.6200864134855677,288.9278681868015,140.1379333694691,84.0,0.0,0,,,,,,
161.98282951753694,2.631986215692872,289.0646800548617,141.12810984725107,84.0,0.0,0,,,,,,
162.9824129029505,2.643886017900176,289.1019557325808,142.12699796323074,84.0,0.0,0,,,,,,
163.9819962883641,2.655785820107481,289.03932277370865,143.12461715754176,84.0,0.0,0,,,,,,
164.98157967377765,2.667685622314785,288.8774069860667,144.11099954896363,84.0,0.0,0,,,,,,
165.98157967377765,2.679590384219547,288.5150326899076,145.0430322036937,84.0,0.0,0,,,,,,
166.98157967377765,2.691495146124309,288.15265839374854,145.9750648584238,84.0,0.0,0,,,,,,
167.98157967377765,2.7033999080290707,287.79028409758945,146.90709751315387,84.0,0.0,0,,,,,,
168.98157967377765,2.7153046699338326,287.42790980143036,147.83913016788395,84.0,0.0,0,,,,,,
169.98157967377765,2.7272094318385944,287.06553550527127,148.77116282261403,84.0,0.0,0,,,,,,
170.98157967377765,2.7391141937433563,286.7031612091122,149.7031954773441,84.0,0.0,0,,,,,,
171.98157967377765,2.751018955648118,286.3407869129531,150.6352281320742,84.0,0.0,0,,,,,,
172.98157967377765,2.76292371755288,285.978412616794,151.56726078680427,84.0,0.0,0,,,,,,
173.98157967377765,2.774828479457642,285.6160383206349,152.49929344153435,84.0,0.0,0,,,,,,
174.98157967377765,2.7867332413624037,285.2536640244758,153.43132609626443,84.0,0.0,0,,,,,,
175.98157967377765,2.7986380032671656,284.89128972831674,154.3633587509945,84.0,0.0,0,,,,,,
176.98669238387234,2.810603630768293,284.65349459160757,155.33993697773897,84.0,0.0,0,,,,,,
177.98658822046085,2.822507152632442,284.3404785800839,156.2895751512329,84.0,0.0,0,,,,,,
178.98648405704932,2.8344106744965907,284.0753158840859,157.2536708045153,84.0,0.0,0,,,,,,
179.9863798936378,2.8463141963607392,283.85866927225936,158.22981420054433,84.0,0.0,0,,,,,,
180.9863798936378,2.858218958265501,283.72047324034787,159.2202190959098,84.0,0.0,0,,,,,,
181.9863798936378,2.870123720170263,283.5822772084364,160.2106239912753,84.0,0.0,0,,,,,,
182.9863798936378,2.882028482075025,283.4440811765249,161.20102888664078,84.0,0.0,0,,,,,,
183.9863798936378,2.8939332439797867,283.3058851446134,162.19143378200627,84.0,0.0,0,,,,,,
184.9863798936378,2.9058380058845485,283.1676891127019,163.18183867737176,84.0,0.0,0,,,,,,
185.9863798936378,2.9177427677893104,283.0294930807904,164.17224357273724,84.0,0.0,0,,,,,,
186.9863798936378,2.9296475296940723,282.8912970488789,165.16264846810273,84.0,0.0,0,,,,,,
187.9863798936378,2.941552291598834,282.75310101696743,166.15305336346822,84.0,0.0,0,,,,,,
188.9863798936378,2.953457053503596,282.61490498505594,167.1434582588337,84.0,0.0,0,,,,,,
189.9863798936378,2.965361815408358,282.47670895314445,168.1338631541992,84.0,0.0,0,,,,,,
190.9863798936378,2.9772665773131197,282.33851292123296,169.12426804956468,84.0,0.0,0,,,,,,
191.9863798936378,2.9891713392178816,282.20031688932147,170.11467294493016,84.0,0.0,0,,,,,,
192.9863798936378,3.0010761011226434,282.06212085741,171.10507784029565,84.0,0.0,0,,,,,,
193.9863798936378,3.0129808630274053,281.9239248254985,172.09548273566114,84.0,0.0,0,,,,,,
194.9863798936378,3.024885624932167,281.785728793587,173.08588763102662,84.0,0.0,0,,,,,,
195.9863798936378,3.036790386836929,281.6475327616755,174.0762925263921,84.0,0.0,0,,,,,,
196.9863798936378,3.048695148741691,281.509336729764,175.0666974217576,84.0,0.0,0,,,,,,
197.9863798936378,3.0605999106464528,281.3711406978525,176.05710231712308,84.0,0.0,0,,,,,,
198.9863798936378,3.0725046725512146,281.23294466594103,177.04750721248857,84.0,0.0,0,,,,,,
199.9863798936378,3.0844094344559765,281.09474863402954,178.03791210785405,84.0,0.0,0,,,,,,
200.9863798936378,3.0963141963607383,280.95655260211805,179.02831700321954,84.0,0.0,0,,,,,,
201.9863798936378,3.1082189582655,280.81835657020656,180.01872189858503,84.0,0.0,0,,,,,,
202.9863798936378,3.120123720170262,280.68016053829507,181.00912679395051,84.0,0.0,0,,,,,,
203.9863798936378,3.132028482075024,280.5419645063836,181.999531689316,84.0,0.0,0,,,,,,
204.9863798936378,3.143933243979786,280.4037684744721,182.9899365846815,84.0,0.0,0,,,,,,
205.9863798936378,3.1558380058845477,280.2655724425606,183.98034148004697,84.0,0.0,0,,,,,,
206.9863798936378,3.1677427677893095,280.1273764106491,184.97074637541246,84.0,0.0,0,,,,,,
207.9863798936378,3.1796475296940714,279.9891803787376,185.96115127077795,84.0,0.0,0,,,,,,
208.9863798936378,3.1915522915988332,279.8509843468261,186.95155616614343,84.0,0.0,0,,,,,,
209.9863798936378,3.203457053503595,279.71278831491463,187.94196106150892,84.0,0.0,0,,,,,,
210.9863798936378,3.215361815408357,279.57459228300314,188.9323659568744,84.0,0.0,0,,,,,,
211.9863798936378,3.227266577313119,279.43639625109165,189.9227708522399,84.0,0.0,0,,,,,,
212.9863798936378,3.2391713392178807,279.29820021918016,190.91317574760538,84.0,0.0,0,,,,,,
213.98688761845497,3.251082145465704,279.1303524083195,191.89950369499817,84.0,0.0,0,,,,,,
214.98682095312165,3.2629861137355456,279.01398696685817,192.89264303960755,84.0,0.0,0,,,,,,
215.98675428778827,3.274890082005386,278.93742958648386,193.88964135519677,84.0,0.0,0,,,,,,
216.98668762245495,3.2867940502752275,278.9008027426738,194.88890365714263,84.0,0.0,0,,,,,,
217.98662095712157,3.298698018545068,278.90416503056474,195.8888313389265,84.0,0.0,0,,,,,,
218.98655429178825,3.3106019868149095,278.9475110712133,196.88782472956416,84.0,0.0,0,,,,,,
219.98648762645487,3.32250595508475,279.03077152020114,197.8842856527377,84.0,0.0,0,,,,,,
220.98642096112152,3.334409923354591,279.1538131785711,198.87661998353713,84.0,0.0,0,,,,,,
221.98635429578817,3.346313891624432,279.31643920591733,199.86324019871984,84.0,0.0,0,,,,,,
222.98628763045485,3.3582178598942733,279.5183894352878,200.84256791640928,84.0,0.0,0,,,,,,
223.9862209651215,3.3701218281641143,279.7593407893959,201.81303642116924,84.0,0.0,0,,,,,,
224.98615429978815,3.3820257964339553,280.0389077974752,202.7730931704144,84.0,0.0,0,,,,,,
225.9860876344548,3.3939297647037963,280.3566432119507,203.72120227814708,84.0,0.0,0,,,,,,
226.98602096912145,3.4058337329736372,280.71203872393903,204.65584697204744,84.0,0.0,0,,,,,,
227.9859543037881,3.417737701243478,281.1045257764348,205.57553201998547,84.0,0.0,0,,,,,,
228.9859543037881,3.42964246314824,281.581617639339,206.45438545165118,84.0,0.0,0,,,,,,
229.9859543037881,3.441547225053002,282.05870950224323,207.33323888331688,84.0,0.0,0,,,,,,
230.9859543037881,3.453451986957764,282.53580136514745,208.21209231498258,84.0,0.0,0,,,,,,
231.9859543037881,3.4653567488625256,283.01289322805167,209.0909457466483,84.0,0.0,0,,,,,,
232.9859543037881,3.4772615107672875,283.4899850909559,209.969799178314,84.0,0.0,0,,,,,,
233.9859543037881,3.4891662726720494,283.9670769538601,210.8486526099797,84.0,0.0,0,,,,,,
234.9859543037881,3.5010710345768112,284.4441688167643,211.7275060416454,84.0,0.0,0,,,,,,
235.9859543037881,3.512975796481573,284.92126067966853,212.6063594733111,84.0,0.0,0,,,,,,
236.9859543037881,3.524880558386335,285.39835254257275,213.4852129049768,84.0,0.0,0,,,,,,
