Distance (in),Time (s),X (in),Y (in),Velocity (in/s),Orientation (deg),Touch,Way X (in),Way Y (in),Way Velocity (in/s),Way Orientation (deg),Way Turn Radius (in),Touch this Point
0.0,0.0,175.0,169.5,0.0,0.0,0,175.0,169.5,0.0,0.0,3.0,0
1.0000000000000158,0.1666666666666693,175.98304419341946,169.68336879174035,12.0,0.0,0,191.78,172.63,84.0,0.0,10.0,0
2.0000000000000315,0.25000000000000394,176.96608838683892,169.8667375834807,12.0,0.0,0,225.16,202.0,84.0,0.0,12.0,0.0
3.000000000000047,0.3333333333333386,177.94913258025838,170.05010637522105,12.0,0.0,0,240.0,130.79,84.0,0.0,30.0,0.0
4.000000000000063,0.4131262652238725,178.93217677367784,170.2334751669614,13.064876707924268,0.0,0,287.99,126.46,84.0,15.0,5.0,0.0
5.000000000000079,0.481162796203898,179.9152209670973,170.41684395870175,16.331095884905338,0.0,0,290.0,180.69,84.0,15.0,10.0,0.0
6.000000000000095,0.5368290488239189,180.89826516051676,170.6002127504421,19.597315061886405,0.0,0,351.63,205.0,108.0,15.0,10.0,0.0
7.000000000000111,0.5839312625793212,181.88130935393622,170.78358154218245,22.863534238867473,0.0,0,406.49,215.0,144.0,15.0,3.0,0.0
8.000000000000126,0.6247531811673364,182.86435354735568,170.9669503339228,26.129753415848537,0.0,0,480.0,230.0,240.0,0.0,3.0,0.0
9.000000000000142,0.660772521097938,183.84739774077514,171.15031912566315,29.395972592829605,0.0,0,541.14,236.06,0.0,15.0,3.0,0.0
10.000000000000158,0.6930003515621607,184.8304419341946,171.3336879174035,32.662191769810676,0.0,0,,,,,,
11.000000000000174,0.7221588648393145,185.81348612761406,171.51705670914384,35.92841094679174,0.0,0,,,,,,
12.00000000000019,0.7487818552228027,186.79653032103352,171.7004255008842,39.19463012377281,0.0,0,,,,,,
13.000000000000206,0.7732750063756119,187.77957451445297,171.88379429262454,42.46084930075388,0.0,0,,,,,,
14.000000000000222,0.7959538500356204,188.76261870787243,172.0671630843649,45.727068477734946,0.0,0,,,,,,
14.998683445590006,0.817041794107749,189.73984181218393,172.27308449873186,48.98898749945377,0.0,0,,,,,,
15.99826683100359,0.8367880487636943,190.6940095603167,172.57096174327756,52.253845921883226,0.0,0,,,,,,
16.997850216417152,0.855337918520782,191.61367234101837,172.96260866869238,55.51870434431261,0.0,0,,,,,,
17.997433601830725,0.8731444304332876,192.48964118778434,173.44411206835883,56.7529623723517,0.0,0,,,,,,
18.997433601830718,0.8905750374354998,193.2404037821336,174.10468418927067,57.98773482460531,0.0,0,,,,,,
19.99743360183071,0.9076383926862182,193.99116637648285,174.7652563101825,59.22250727685892,0.0,0,,,,,,
20.997433601830704,0.9243496523737057,194.7419289708321,175.42582843109435,60.45727972911253,0.0,0,,,,,,
21.997433601830696,0.9407230534289465,195.49269156518136,176.08640055200618,61.69205218136614,0.0,0,,,,,,
22.99743360183069,0.9567719863925236,196.24345415953061,176.74697267291802,62.926824633619745,0.0,0,,,,,,
23.997433601830682,0.9725090612018586,196.99421675387987,177.40754479382986,64.16159708587335,0.0,0,,,,,,
24.997433601830675,0.9879461667084952,197.74497934822912,178.0681169147417,65.39636953812696,0.0,0,,,,,,
25.997433601830668,1.0030945246290952,198.49574194257838,178.72868903565353,66.63114199038057,0.0,0,,,,,,
26.99743360183066,1.0179647385433757,199.24650453692763,179.38926115656537,67.86591444263418,0.0,0,,,,,,
27.997433601830654,1.0325668384748141,199.99726713127689,180.0498332774772,69.10068689488779,0.0,0,,,,,,
28.997433601830647,1.046910321523524,200.74802972562614,180.71040539838904,70.3354593471414,0.0,0,,,,,,
29.99743360183064,1.0610041889635178,201.4987923199754,181.37097751930088,71.570231799395,0.0,0,,,,,,
30.997433601830632,1.0748569801672176,202.24955491432465,182.03154964021272,72.80500425164861,0.0,0,,,,,,
31.997433601830625,1.088476803677359,203.0003175086739,182.69212176112455,74.03977670390222,0.0,0,,,,,,
32.997433601830615,1.1018713657093668,203.75108010302316,183.3526938820364,75.27454915615583,0.0,0,,,,,,
33.99743360183061,1.1150479963350426,204.5018426973724,184.01326600294823,76.50932160840944,0.0,0,,,,,,
34.9974336018306,1.1280136735702921,205.25260529172166,184.67383812386007,77.74409406066304,0.0,0,,,,,,
35.99743360183059,1.140775045565055,206.00336788607092,185.3344102447719,78.97886651291665,0.0,0,,,,,,
36.997433601830586,1.1533384510720768,206.75413048042017,185.99498236568374,80.21363896517026,0.0,0,,,,,,
37.99743360183058,1.1657099383522809,207.50489307476943,186.65555448659558,81.44841141742387,0.0,0,,,,,,
38.99743360183057,1.1778952826578764,208.25565566911868,187.3161266075074,82.68318386967748,0.0,0,,,,,,
39.997433601830565,1.1899000024196966,209.00641826346794,187.97669872841925,83.91795632193109,0.0,0,,,,,,
41.00526018266599,1.2019038000231315,209.8505948665063,188.52722600287623,84.0,0.0,0,,,,,,
42.004970855930445,1.213805117561994,210.6390251965381,189.14187960038038,84.0,0.0,0,,,,,,
43.00468152919491,1.2257064351008566,211.47588137514066,189.68877370948528,84.0,0.0,0,,,,,,
44.00439220245938,1.2376077526397193,212.3553552634325,190.16411265176933,84.0,0.0,0,,,,,,
45.00410287572383,1.2495090701785818,213.27134293744632,190.564597372194,84.0,0.0,0,,,,,,
46.0038135489883,1.2614103877174445,214.21748705196515,190.88744833595322,84.0,0.0,0,,,,,,
47.00352422225275,1.273311705256307,215.1872209632102,191.13042481963066,84.0,0.0,0,,,,,,
48.00323489551721,1.2852130227951697,216.17381430415003,191.2918404627761,84.0,0.0,0,,,,,,
49.002945568781655,1.2971143403340322,217.1704196961189,191.37057497196633,84.0,0.0,0,,,,,,
50.00265624204613,1.3090156578728949,218.17012027254583,191.36608189611957,84.0,0.0,0,,,,,,
51.00236691531057,1.3209169754117571,219.16597768495922,191.27839241909894,84.0,0.0,0,,,,,,
52.00207758857503,1.3328182929506198,220.1510802580853,191.10811514328316,84.0,0.0,0,,,,,,
53.001788261839486,1.3447196104894825,221.1185909598229,190.85643186560648,84.0,0.0,0,,,,,,
54.00149893510394,1.356620928028345,222.061794853163,190.52508937538383,84.0,0.0,0,,,,,,
55.0012096083684,1.3685222455672077,222.9741457007161,190.11638733084766,84.0,0.0,0,,,,,,
56.00092028163287,1.3804235631060704,223.8493113983923,189.63316229853888,84.0,0.0,0,,,,,,
57.00063095489734,1.392324880644933,224.68121792290503,189.07876806632498,84.0,0.0,0,,,,,,
58.000341628161785,1.4042261981837956,225.46409148808377,188.4570523666815,84.0,0.0,0,,,,,,
59.00005230142624,1.416127515722658,226.1924986174132,187.77233017178716,84.0,0.0,0,,,,,,
59.999762974690704,1.4280288332615207,226.86138385467814,187.02935374577626,84.0,0.0,0,,,,,,
60.999473647955156,1.4399301508003832,227.46610485098623,186.23327966199824,84.0,0.0,0,,,,,,
61.99918432121963,1.451831468339246,228.00246458464983,185.3896330141988,84.0,0.0,0,,,,,,
62.998894994484075,1.4637327858781084,228.46674049030682,184.50426907001244,84.0,0.0,0,,,,,,
63.99860566774852,1.4756341034169709,228.85571029511235,183.58333263290703,84.0,0.0,0,,,,,,
64.99860566774852,1.4875388653217327,229.05972493770486,182.60436479604627,84.0,0.0,0,,,,,,
65.99860566774852,1.4994436272264946,229.26373958029737,181.6253969591855,84.0,0.0,0,,,,,,
66.99860566774852,1.5113483891312565,229.46775422288988,180.64642912232475,84.0,0.0,0,,,,,,
67.99860566774852,1.5232531510360183,229.6717688654824,179.667461285464,84.0,0.0,0,,,,,,
68.99860566774852,1.5351579129407802,229.8757835080749,178.68849344860323,84.0,0.0,0,,,,,,
69.99860566774852,1.547062674845542,230.07979815066741,177.70952561174246,84.0,0.0,0,,,,,,
70.99860566774852,1.558967436750304,230.28381279325993,176.7305577748817,84.0,0.0,0,,,,,,
71.99860566774852,1.5708721986550658,230.48782743585244,175.75158993802094,84.0,0.0,0,,,,,,
72.99860566774852,1.5827769605598276,230.69184207844495,174.77262210116018,84.0,0.0,0,,,,,,
73.99860566774852,1.5946817224645895,230.89585672103746,173.79365426429942,84.0,0.0,0,,,,,,
74.99860566774852,1.6065864843693514,231.09987136362997,172.81468642743866,84.0,0.0,0,,,,,,
75.99860566774852,1.6184912462741132,231.30388600622248,171.8357185905779,84.0,0.0,0,,,,,,
76.99860566774852,1.630396008178875,231.507900648815,170.85675075371714,84.0,0.0,0,,,,,,
77.99860566774852,1.642300770083637,231.7119152914075,169.87778291685638,84.0,0.0,0,,,,,,
78.99860566774852,1.6542055319883988,231.91592993400002,168.89881507999561,84.0,0.0,0,,,,,,
79.99860566774852,1.6661102938931607,232.11994457659253,167.91984724313485,84.0,0.0,0,,,,,,
80.99860566774852,1.6780150557979225,232.32395921918504,166.9408794062741,84.0,0.0,0,,,,,,
81.99860566774852,1.6899198177026844,232.52797386177755,165.96191156941333,84.0,0.0,0,,,,,,
82.99860566774852,1.7018245796074463,232.73198850437007,164.98294373255257,84.0,0.0,0,,,,,,
83.99860566774852,1.7137293415122081,232.93600314696258,164.0039758956918,84.0,0.0,0,,,,,,
84.99860566774852,1.72563410341697,233.1400177895551,163.02500805883105,84.0,0.0,0,,,,,,
85.99860566774852,1.7375388653217319,233.3440324321476,162.0460402219703,84.0,0.0,0,,,,,,
86.99860566774852,1.7494436272264937,233.5480470747401,161.06707238510953,84.0,0.0,0,,,,,,
87.99860566774852,1.7613483891312556,233.75206171733262,160.08810454824877,84.0,0.0,0,,,,,,
88.99860566774852,1.7732531510360174,233.95607635992513,159.109136711388,84.0,0.0,0,,,,,,
89.99860566774852,1.7851579129407793,234.16009100251765,158.13016887452724,84.0,0.0,0,,,,,,
90.99860566774852,1.7970626748455412,234.36410564511016,157.15120103766648,84.0,0.0,0,,,,,,
91.99860566774852,1.808967436750303,234.56812028770267,156.17223320080572,84.0,0.0,0,,,,,,
92.99860566774852,1.8208721986550649,234.77213493029518,155.19326536394496,84.0,0.0,0,,,,,,
93.99860566774852,1.8327769605598268,234.9761495728877,154.2142975270842,84.0,0.0,0,,,,,,
94.99860566774852,1.8446817224645886,235.1801642154802,153.23532969022344,84.0,0.0,0,,,,,,
96.00717443456746,1.8566884934981474,235.5214720881325,152.28626705084275,84.0,0.0,0,,,,,,
97.00712813891415,1.8685927042641794,235.75054549603564,151.3129054609758,84.0,0.0,0,,,,,,
98.00708184326083,1.8804969150302113,236.01193103097538,150.3477189437881,84.0,0.0,0,,,,,,
99.00703554760753,1.8924011257962434,236.30533829147006,149.3917798294478,84.0,0.0,0,,,,,,
100.00698925195425,1.9043053365622757,236.63044129963734,148.44615017418243,84.0,0.0,0,,,,,,
101.00694295630095,1.9162095473283078,236.9868788633581,147.51188058032557,84.0,0.0,0,,,,,,
102.00689666064764,1.92811375809434,237.37425497756408,146.59000902908898,84.0,0.0,0,,,,,,
103.00685036499434,1.940017968860372,237.7921392642026,145.681559727357,84.0,0.0,0,,,,,,
104.00680406934103,1.9519221796264041,238.2400674503903,144.78754196978434,84.0,0.0,0,,,,,,
105.00675777368772,1.9638263903924362,238.71754188422392,143.90894901746117,84.0,0.0,0,,,,,,
106.00671147803442,1.9757306011584683,239.22403208767582,143.0467569943921,84.0,0.0,0,,,,,,
107.00666518238114,1.9876348119245006,239.75897534595944,142.20192380301427,84.0,0.0,0,,,,,,
108.00661888672782,1.9995390226905325,240.3217773327099,141.37538805995993,84.0,0.0,0,,,,,,
109.00657259107453,2.0114432334565646,240.9118127702857,140.56806805324547,84.0,0.0,0,,,,,,
110.00652629542122,2.0233474442225967,241.52842612445716,139.78086072204604,84.0,0.0,0,,,,,,
111.00647999976792,2.035251654988629,242.17093233271046,139.01464066018872,84.0,0.0,0,,,,,,
112.00643370411463,2.047155865754661,242.83861756535768,138.27025914447145,84.0,0.0,0,,,,,,
113.00638740846131,2.059060076520693,243.53074001860742,137.54854318888766,84.0,0.0,0,,,,,,
114.00634111280802,2.070964287286725,244.246530738715,136.85029462580673,84.0,0.0,0,,,,,,
115.0062948171547,2.082868498052757,244.98519447629639,136.1762892151319,84.0,0.3409110899137276,0,,,,,,
116.00624852150142,2.0947727088187897,245.7459105698568,135.52727578242428,84.0,0.6818221798274697,0,,,,,,
117.00620222584811,2.106676919584822,246.5278338575523,134.90397538695183,84.0,1.0227332697412022,0,,,,,,
118.0061559301948,2.118581130350854,247.33009561617172,134.30708052058628,84.0,1.3636443596549297,0,,,,,,
119.0061096345415,2.130485341116886,248.15180452629522,133.7372543384392,84.0,1.704555449568667,0,,,,,,
120.00606333888821,2.142389551882918,248.9920476625575,133.195129922091,84.0,2.0454665394824043,0,,,,,,
121.00601704323492,2.1542937626489502,249.84989150791534,132.6813095762323,84.0,2.3863776293961414,0,,,,,,
122.00597074758161,2.1661979734149823,250.72438299079286,132.19636415949827,84.0,2.7272887193098736,0,,,,,,
123.00592445192832,2.1781021841810144,251.6145505439518,131.74083245024002,84.0,3.0681998092236107,0,,,,,,
124.00587815627503,2.1900063949470465,252.5194051839107,131.3152205479375,84.0,3.4091108991373478,0,,,,,,
125.00583186062174,2.2019106057130786,253.43794160971376,130.92000131091885,84.0,3.750021989051085,0,,,,,,
126.00578556496845,2.2138148164791107,254.36913931982846,130.55561383101067,84.0,4.090933078964822,0,,,,,,
127.00573926931516,2.225719027245143,255.31196374593114,130.22246294570363,84.0,4.431844168878559,0,,,,,,
128.00569297366187,2.237623238011175,256.2653674023209,129.92091878837454,84.0,4.772755258792296,0,,,,,,
129.00564667800856,2.249527448777207,257.22829104968497,129.6513163770652,84.0,5.113666348706029,0,,,,,,
130.00560038235525,2.261431659543239,258.1996648719221,129.41395524227454,84.0,5.454577438619761,0,,,,,,
131.00555408670195,2.273335870309271,259.17840966471726,129.20909909417782,84.0,5.795488528533494,0,,,,,,
132.00550779104867,2.2852400810753037,260.16343803454646,129.0369755296424,84.0,6.1363996184472365,0,,,,,,
133.00550779104864,2.297144842980065,261.15939225263907,128.94711343828294,84.0,6.47732649179329,0,,,,,,
134.00550779104861,2.3090496048848266,262.1553464707317,128.85725134692348,84.0,6.818253365139344,0,,,,,,
135.0055077910486,2.320954366789588,263.1513006888243,128.767389255564,84.0,7.159180238485398,0,,,,,,
136.00550779104856,2.3328591286943494,264.1472549069169,128.67752716420455,84.0,7.5001071118314515,0,,,,,,
137.00550779104853,2.344763890599111,265.1432091250095,128.58766507284508,84.0,7.841033985177505,0,,,,,,
138.0055077910485,2.3566686525038723,266.1391633431021,128.49780298148562,84.0,8.181960858523558,0,,,,,,
139.00550779104847,2.3685734144086337,267.1351175611947,128.40794089012616,84.0,8.522887731869611,0,,,,,,
140.00550779104844,2.380478176313395,268.1310717792873,128.3180787987667,84.0,8.863814605215664,0,,,,,,
141.00550779104842,2.3923829382181565,269.1270259973799,128.22821670740723,84.0,9.204741478561717,0,,,,,,
142.0055077910484,2.404287700122918,270.1229802154725,128.13835461604776,84.0,9.54566835190777,0,,,,,,
143.00550779104836,2.4161924620276793,271.11893443356513,128.0484925246883,84.0,9.886595225253823,0,,,,,,
144.00550779104833,2.4280972239324408,272.11488865165774,127.95863043332882,84.0,10.227522098599875,0,,,,,,
145.0055077910483,2.440001985837202,273.11084286975034,127.86876834196934,84.0,10.568448971945928,0,,,,,,
146.00550779104827,2.4519067477419636,274.10679708784295,127.77890625060986,84.0,10.909375845291981,0,,,,,,
147.00550779104825,2.463811509646725,275.10275130593556,127.68904415925039,84.0,11.250302718638034,0,,,,,,
148.00550779104822,2.4757162715514864,276.09870552402816,127.59918206789091,84.0,11.591229591984087,0,,,,,,
149.0055077910482,2.487621033456248,277.09465974212077,127.50931997653143,84.0,11.93215646533014,0,,,,,,
150.00550779104816,2.4995257953610093,278.0906139602134,127.41945788517195,84.0,12.273083338676193,0,,,,,,
151.00550779104813,2.5114305572657707,279.086568178306,127.32959579381247,84.0,12.614010212022245,0,,,,,,
152.0055077910481,2.523335319170532,280.0825223963986,127.239733702453,84.0,12.954937085368298,0,,,,,,
153.00550779104807,2.5352400810752935,281.0784766144912,127.14987161109352,84.0,13.295863958714351,0,,,,,,
154.00550779104805,2.547144842980055,282.0744308325838,127.06000951973404,84.0,13.636790832060404,0,,,,,,
155.01066315112763,2.5591109782190977,283.06906398071095,126.91495022653507,84.0,13.979475306199372,0,,,,,,
156.00899731759586,2.5709959087722907,284.064510966728,126.9908212089157,84.0,14.319834252127933,0,,,,,,
157.00733148406414,2.5828808393254845,285.0250420504398,127.26294460952893,84.0,14.660193198056513,0,,,,,,
158.00566565053242,2.5947657698786784,285.9123638886699,127.72047172712733,84.0,15.000552143985093,0,,,,,,
159.0039998170007,2.606650700431872,286.691101759834,128.34516239934257,84.0,15.000541748865665,0,,,,,,
160.00233398346901,2.6185356309850665,287.33020984245826,129.11211218039887,84.0,15.000531353746236,0,,,,,,
161.0006681499373,2.6304205615382603,287.80420891411063,129.99074520277546,84.0,15.000520958626808,0,,,,,,
162.0006681499373,2.642325323443022,287.8412478369503,130.99005902645393,84.0,15.000510546161946,0,,,,,,
163.0006681499373,2.654230085347784,287.87828675978994,131.9893728501324,84.0,15.000500133697084,0,,,,,,
164.0006681499373,2.666134847252546,287.9153256826296,132.9886866738109,84.0,15.000489721232222,0,,,,,,
165.0006681499373,2.6780396091573078,287.95236460546926,133.98800049748937,84.0,15.00047930876736,0,,,,,,
166.0006681499373,2.6899443710620696,287.9894035283089,134.98731432116784,84.0,15.000468896302499,0,,,,,,
167.0006681499373,2.7018491329668315,288.02644245114857,135.98662814484632,84.0,15.000458483837637,0,,,,,,
168.0006681499373,2.7137538948715934,288.0634813739882,136.9859419685248,84.0,15.000448071372775,0,,,,,,
169.0006681499373,2.725658656776355,288.1005202968279,137.98525579220328,84.0,15.000437658907913,0,,,,,,
170.0006681499373,2.737563418681117,288.13755921966754,138.98456961588175,84.0,15.000427246443051,0,,,,,,
171.0006681499373,2.749468180585879,288.1745981425072,139.98388343956023,84.0,15.00041683397819,0,,,,,,
172.0006681499373,2.761372942490641,288.21163706534685,140.9831972632387,84.0,15.000406421513327,0,,,,,,
173.0006681499373,2.7732777043954027,288.2486759881865,141.98251108691719,84.0,15.000396009048465,0,,,,,,
174.0006681499373,2.7851824663001645,288.28571491102616,142.98182491059566,84.0,15.000385596583603,0,,,,,,
175.0006681499373,2.7970872282049264,288.3227538338658,143.98113873427414,84.0,15.000375184118742,0,,,,,,
176.0006681499373,2.8089919901096883,288.3597927567055,144.98045255795262,84.0,15.00036477165388,0,,,,,,
177.0006681499373,2.82089675201445,288.39683167954513,145.9797663816311,84.0,15.000354359189018,0,,,,,,
178.0006681499373,2.832801513919212,288.4338706023848,146.97908020530957,84.0,15.000343946724156,0,,,,,,
179.0006681499373,2.844706275823974,288.47090952522444,147.97839402898805,84.0,15.000333534259294,0,,,,,,
180.0006681499373,2.8566110377287357,288.5079484480641,148.97770785266653,84.0,15.000323121794432,0,,,,,,
181.0006681499373,2.8685157996334976,288.54498737090375,149.977021676345,84.0,15.00031270932957,0,,,,,,
182.0006681499373,2.8804205615382594,288.5820262937434,150.97633550002348,84.0,15.000302296864708,0,,,,,,
183.0006681499373,2.8923253234430213,288.61906521658307,151.97564932370196,84.0,15.000291884399847,0,,,,,,
184.0006681499373,2.904230085347783,288.6561041394227,152.97496314738044,84.0,15.000281471934985,0,,,,,,
185.0006681499373,2.916134847252545,288.6931430622624,153.9742769710589,84.0,15.000271059470123,0,,,,,,
186.0006681499373,2.928039609157307,288.73018198510204,154.9735907947374,84.0,15.00026064700526,0,,,,,,
187.0006681499373,2.9399443710620687,288.7672209079417,155.97290461841587,84.0,15.000250234540399,0,,,,,,
188.0006681499373,2.9518491329668306,288.80425983078135,156.97221844209434,84.0,15.000239822075537,0,,,,,,
189.0006681499373,2.9637538948715925,288.841298753621,157.97153226577282,84.0,15.000229409610675,0,,,,,,
190.0006681499373,2.9756586567763543,288.87833767646066,158.9708460894513,84.0,15.000218997145813,0,,,,,,
191.0006681499373,2.987563418681116,288.9153765993003,159.97015991312978,84.0,15.000208584680951,0,,,,,,
192.0006681499373,2.999468180585878,288.95241552214,160.96947373680825,84.0,15.00019817221609,0,,,,,,
193.0006681499373,3.01137294249064,288.98945444497963,161.96878756048673,84.0,15.000187759751228,0,,,,,,
194.0006681499373,3.0232777043954018,289.0264933678193,162.9681013841652,84.0,15.000177347286366,0,,,,,,
195.0006681499373,3.0351824663001636,289.06353229065894,163.9674152078437,84.0,15.000166934821504,0,,,,,,
