Distance (in),Time (s),X (in),Y (in),Velocity (in/s),Orientation (deg),Touch,Way X (in),Way Y (in),Way Velocity (in/s),Way Orientation (deg),Way Turn Radius (in),Touch this Point
0.0,0.0,149.0,162.0,0.0,0.0,0,149.0,162.0,0.0,0.0,3.0,0.0
1.0000000000000053,0.16666666666666755,149.99340129422214,162.11469031623372,12.0,0.0,0,171.78,164.63,84.0,0.0,3.0,0
2.0000000000000107,0.25000000000000133,150.98680258844428,162.22938063246744,12.0,0.0,0,232.16,198.0,84.0,0.0,12.0,0
3.000000000000016,0.3333333333333351,151.98020388266642,162.34407094870116,12.0,0.0,0,240.0,130.79,84.0,0.0,3.0,0
4.000000000000021,0.41666666666666885,152.97360517688855,162.45876126493488,12.0,0.0,0,287.99,121.46,84.0,0.0,5.0,0
5.000000000000027,0.49222983700475154,153.9670064711107,162.5734515811686,14.46792069538196,0.0,0,290.0,180.69,84.0,0.0,10.0,0
6.000000000000032,0.5550647756411714,154.96040776533283,162.68814189740232,17.36150483445835,0.0,0,351.63,205.0,108.0,0.0,10.0,0
7.000000000000037,0.608232800641219,155.95380905955497,162.80283221363604,20.255088973534743,0.0,0,406.49,215.0,144.0,0.0,3.0,0
8.000000000000043,0.6543117556412602,156.9472103537771,162.91752252986976,23.148673112611135,0.0,0,480.0,225.0,240.0,0.0,3.0,0
9.000000000000048,0.6949696571118849,157.94061164799925,163.03221284610348,26.042257251687527,0.0,0,541.14,226.06,0.0,0.0,3.0,0
10.000000000000053,0.7313477794803385,158.9340129422214,163.1469031623372,28.93584139076392,0.0,0,,,,,,
11.000000000000059,0.7642613187660822,159.92741423644352,163.26159347857092,31.82942552984031,0.0,0,,,,,,
12.000000000000064,0.7943128111574134,160.92081553066566,163.37628379480464,34.7230096689167,0.0,0,,,,,,
13.00000000000007,0.8219601841574381,161.9142168248878,163.49097411103835,37.6165938079931,0.0,0,,,,,,
14.000000000000075,0.8475596036019054,162.90761811910994,163.60566442727207,40.510177947069494,0.0,0,,,,,,
15.00000000000008,0.871393545843306,163.90101941333208,163.7203547435058,43.40376208614589,0.0,0,,,,,,
16.000000000000085,0.893689814391713,164.89442070755422,163.8350450597395,46.297346225222284,0.0,0,,,,,,
17.000000000000092,0.9146347939371864,165.88782200177636,163.94973537597323,49.19093036429868,0.0,0,,,,,,
18.0000000000001,0.9343829175086327,166.8812232959985,164.06442569220695,52.084514503375075,0.0,0,,,,,,
19.000000000000107,0.9530635749410818,167.87462459022063,164.17911600844067,54.97809864245147,0.0,0,,,,,,
20.000000000000114,0.9707862499410977,168.86802588444277,164.2938063246744,57.871682781527866,0.0,0,,,,,,
21.00000000000012,0.9876444042094055,169.8614271786649,164.4084966409081,60.76526692060426,0.0,0,,,,,,
22.000000000000128,1.0037184582791874,170.85482847288705,164.52318695714183,63.65885105968066,0.0,0,,,,,,
22.93131701407489,1.018241330189459,171.78,164.63,64.59636179750342,0.0,0,,,,,,
23.93131701407488,1.0336023871369484,172.65522861620354,165.1137094886173,65.60301229744532,0.0,0,,,,,,
24.931317014074875,1.0487295298149515,173.5304572324071,165.5974189772346,66.60966279738722,0.0,0,,,,,,
25.931317014074867,1.0636297753426032,174.40568584861063,166.08112846585192,67.61631329732911,0.0,0,,,,,,
26.93131701407486,1.078309829748729,175.28091446481417,166.56483795446923,68.62296379727101,0.0,0,,,,,,
27.931317014074853,1.0927761060928356,176.15614308101772,167.04854744308653,69.62961429721291,0.0,0,,,,,,
28.931317014074846,1.1070347412856072,177.03137169722126,167.53225693170384,70.63626479715481,0.0,0,,,,,,
29.93131701407484,1.1210916117193215,177.9066003134248,168.01596642032115,71.6429152970967,0.0,0,,,,,,
30.931317014074832,1.1349523478078167,178.78182892962835,168.49967590893846,72.6495657970386,0.0,0,,,,,,
31.931317014074825,1.1486223475260422,179.6570575458319,168.98338539755576,73.6562162969805,0.0,0,,,,,,
32.93131701407482,1.1621067890306715,180.53228616203543,169.46709488617307,74.66286679692242,0.0,0,,,,,,
33.931317014074814,1.175410642435619,181.40751477823898,169.95080437479038,75.66951729686431,0.0,0,,,,,,
34.93131701407481,1.1885386808094678,182.28274339444252,170.4345138634077,76.67616779680621,0.0,0,,,,,,
35.9313170140748,1.2014954904557025,183.15797201064606,170.918223352025,77.68281829674811,0.0,0,,,,,,
36.93131701407479,1.2142854805311492,184.0332006268496,171.4019328406423,78.68946879669001,0.0,0,,,,,,
37.931317014074786,1.2269128920530963,184.90842924305315,171.8856423292596,79.6961192966319,0.0,0,,,,,,
38.93131701407478,1.2393818063411361,185.7836578592567,172.36935181787692,80.7027697965738,0.0,0,,,,,,
39.93131701407477,1.2516961529357709,186.65888647546024,172.85306130649423,81.7094202965157,0.0,0,,,,,,
40.931317014074764,1.263859717032223,187.53411509166378,173.33677079511153,82.7160707964576,0.0,0,,,,,,
41.93131701407476,1.2758761464646367,188.40934370786732,173.82048028372884,83.7227212963995,0.0,0,,,,,,
42.93131701407475,1.2878005892863436,189.28457232407087,174.30418977234615,84.0,0.0,0,,,,,,
43.93131701407474,1.2997053511911054,190.1598009402744,174.78789926096346,84.0,0.0,0,,,,,,
44.931317014074736,1.3116101130958673,191.03502955647795,175.27160874958076,84.0,0.0,0,,,,,,
45.93131701407473,1.3235148750006291,191.9102581726815,175.75531823819807,84.0,0.0,0,,,,,,
46.93131701407472,1.335419636905391,192.78548678888504,176.23902772681538,84.0,0.0,0,,,,,,
47.931317014074715,1.3473243988101529,193.66071540508858,176.7227372154327,84.0,0.0,0,,,,,,
48.93131701407471,1.3592291607149147,194.53594402129212,177.20644670405,84.0,0.0,0,,,,,,
49.9313170140747,1.3711339226196766,195.41117263749567,177.6901561926673,84.0,0.0,0,,,,,,
50.93131701407469,1.3830386845244385,196.2864012536992,178.1738656812846,84.0,0.0,0,,,,,,
51.931317014074686,1.3949434464292003,197.16162986990275,178.65757516990192,84.0,0.0,0,,,,,,
52.93131701407468,1.4068482083339622,198.0368584861063,179.14128465851923,84.0,0.0,0,,,,,,
53.93131701407467,1.418752970238724,198.91208710230984,179.62499414713653,84.0,0.0,0,,,,,,
54.931317014074665,1.430657732143486,199.78731571851338,180.10870363575384,84.0,0.0,0,,,,,,
55.93131701407466,1.4425624940482478,200.66254433471693,180.59241312437115,84.0,0.0,0,,,,,,
56.93131701407465,1.4544672559530096,201.53777295092047,181.07612261298846,84.0,0.0,0,,,,,,
57.931317014074644,1.4663720178577715,202.413001567124,181.55983210160576,84.0,0.0,0,,,,,,
58.93131701407464,1.4782767797625334,203.28823018332756,182.04354159022307,84.0,0.0,0,,,,,,
59.93131701407463,1.4901815416672952,204.1634587995311,182.52725107884038,84.0,0.0,0,,,,,,
60.93131701407462,1.502086303572057,205.03868741573464,183.0109605674577,84.0,0.0,0,,,,,,
61.931317014074615,1.513991065476819,205.9139160319382,183.494670056075,84.0,0.0,0,,,,,,
62.93131701407461,1.5258958273815808,206.78914464814173,183.9783795446923,84.0,0.0,0,,,,,,
63.9313170140746,1.5378005892863427,207.66437326434527,184.4620890333096,84.0,0.0,0,,,,,,
64.9313170140746,1.5497053511911045,208.53960188054882,184.94579852192692,84.0,0.0,0,,,,,,
65.9313170140746,1.5616101130958664,209.41483049675236,185.42950801054423,84.0,0.0,0,,,,,,
66.9313170140746,1.5735148750006283,210.2900591129559,185.91321749916153,84.0,0.0,0,,,,,,
67.9313170140746,1.5854196369053901,211.16528772915945,186.39692698777884,84.0,0.0,0,,,,,,
68.9313170140746,1.597324398810152,212.040516345363,186.88063647639615,84.0,0.0,0,,,,,,
69.9313170140746,1.6092291607149138,212.91574496156653,187.36434596501346,84.0,0.0,0,,,,,,
70.9313170140746,1.6211339226196757,213.79097357777007,187.84805545363076,84.0,0.0,0,,,,,,
71.9313170140746,1.6330386845244376,214.66620219397362,188.33176494224807,84.0,0.0,0,,,,,,
72.9313170140746,1.6449434464291994,215.54143081017716,188.81547443086538,84.0,0.0,0,,,,,,
73.9313170140746,1.6568482083339613,216.4166594263807,189.2991839194827,84.0,0.0,0,,,,,,
74.92938987965493,1.6687300281622988,217.30580426950385,189.75258318387915,84.0,0.0,0,,,,,,
75.9291005529194,1.6806313457011615,218.23091977015932,190.13150631683075,84.0,0.0,0,,,,,,
76.92881122618385,1.6925326632400242,219.18436531576475,190.43211074428322,84.0,0.0,0,,,,,,
77.92852189944831,1.7044339807788869,220.15952358749485,190.65231014327256,84.0,0.0,0,,,,,,
78.92823257271279,1.7163352983177496,221.14962657094236,190.79057623603296,84.0,0.0,0,,,,,,
79.92794324597723,1.728236615856612,222.1478025290253,190.84594939689651,84.0,0.0,0,,,,,,
80.92765391924169,1.7401379333954747,223.1471236947739,190.81804531250467,84.0,0.0,0,,,,,,
81.92736459250615,1.7520392509343374,224.14065435298855,190.70705764910699,84.0,0.0,0,,,,,,
82.92707526577061,1.7639405684732001,225.12149897706215,190.51375670843467,84.0,0.0,0,,,,,,
83.92678593903506,1.7758418860120626,226.0828500868764,190.2394840814779,84.0,0.0,0,,,,,,
84.92649661229952,1.7877432035509253,227.0180354956179,189.88614333727222,84.0,0.0,0,,,,,,
85.92620728556399,1.799644521089788,227.92056461760097,189.4561868113171,84.0,0.0,0,,,,,,
86.92591795882844,1.8115458386286505,228.78417351570107,188.9525985853217,84.0,0.0,0,,,,,,
87.92562863209291,1.8234471561675132,229.60286837575086,188.37887377640462,84.0,0.0,0,,,,,,
88.92533930535735,1.8353484737063757,230.37096710616723,187.73899427949007,84.0,0.0,0,,,,,,
89.92504997862183,1.8472497912452384,231.08313877409105,187.0374011312585,84.0,0.0,0,,,,,,
90.92476065188627,1.8591511087841008,231.7344406043353,186.27896368745752,84.0,0.0,0,,,,,,
91.92447132515075,1.8710524263229635,232.32035228435345,185.46894582749565,84.0,0.0,0,,,,,,
92.92418199841521,1.8829537438618262,232.8368073371369,184.61296942087375,84.0,0.0,0,,,,,,
93.92389267167965,1.8948550614006887,233.28022134430017,183.71697530901238,84.0,0.0,0,,,,,,
94.92360334494411,1.9067563789395514,233.64751682347367,182.7871820732779,84.0,0.0,0,,,,,,
95.92331401820857,1.918657696478414,233.93614458734405,181.83004287537509,84.0,0.0,0,,,,,,
96.92331401820857,1.930562458383176,234.05200827679306,180.8367777519225,84.0,0.0,0,,,,,,
97.92331401820857,1.9424672202879378,234.16787196624207,179.84351262846994,84.0,0.0,0,,,,,,
98.92331401820857,1.9543719821926997,234.2837356556911,178.85024750501736,84.0,0.0,0,,,,,,
99.92331401820857,1.9662767440974616,234.3995993451401,177.8569823815648,84.0,0.0,0,,,,,,
100.92331401820857,1.9781815060022234,234.51546303458912,176.86371725811222,84.0,0.0,0,,,,,,
101.92331401820857,1.9900862679069853,234.63132672403813,175.87045213465964,84.0,0.0,0,,,,,,
102.92331401820857,2.001991029811747,234.74719041348715,174.87718701120707,84.0,0.0,0,,,,,,
103.92331401820857,2.013895791716509,234.86305410293616,173.8839218877545,84.0,0.0,0,,,,,,
104.92331401820857,2.025800553621271,234.97891779238518,172.89065676430192,84.0,0.0,0,,,,,,
105.92331401820857,2.0377053155260327,235.0947814818342,171.89739164084935,84.0,0.0,0,,,,,,
106.92331401820857,2.0496100774307946,235.2106451712832,170.90412651739678,84.0,0.0,0,,,,,,
107.92331401820857,2.0615148393355565,235.32650886073222,169.9108613939442,84.0,0.0,0,,,,,,
108.92331401820857,2.0734196012403183,235.44237255018123,168.91759627049163,84.0,0.0,0,,,,,,
109.92331401820857,2.08532436314508,235.55823623963025,167.92433114703906,84.0,0.0,0,,,,,,
110.92331401820857,2.097229125049842,235.67409992907926,166.93106602358648,84.0,0.0,0,,,,,,
111.92331401820857,2.109133886954604,235.78996361852828,165.9378009001339,84.0,0.0,0,,,,,,
112.92331401820857,2.1210386488593658,235.9058273079773,164.94453577668133,84.0,0.0,0,,,,,,
113.92331401820857,2.1329434107641276,236.0216909974263,163.95127065322876,84.0,0.0,0,,,,,,
114.92331401820857,2.1448481726688895,236.13755468687532,162.9580055297762,84.0,0.0,0,,,,,,
115.92331401820857,2.1567529345736514,236.25341837632433,161.9647404063236,84.0,0.0,0,,,,,,
116.92331401820857,2.168657696478413,236.36928206577335,160.97147528287104,84.0,0.0,0,,,,,,
117.92331401820857,2.180562458383175,236.48514575522236,159.97821015941847,84.0,0.0,0,,,,,,
118.92331401820857,2.192467220287937,236.60100944467138,158.9849450359659,84.0,0.0,0,,,,,,
119.92331401820857,2.204371982192699,236.7168731341204,157.99167991251332,84.0,0.0,0,,,,,,
120.92331401820857,2.2162767440974607,236.8327368235694,156.99841478906075,84.0,0.0,0,,,,,,
121.92331401820857,2.2281815060022225,236.94860051301842,156.00514966560817,84.0,0.0,0,,,,,,
122.92331401820857,2.2400862679069844,237.06446420246743,155.0118845421556,84.0,0.0,0,,,,,,
123.92331401820857,2.2519910298117463,237.18032789191645,154.01861941870303,84.0,0.0,0,,,,,,
124.92331401820857,2.263895791716508,237.29619158136546,153.02535429525045,84.0,0.0,0,,,,,,
125.92331401820857,2.27580055362127,237.41205527081448,152.03208917179788,84.0,0.0,0,,,,,,
126.92331401820857,2.287705315526032,237.5279189602635,151.0388240483453,84.0,0.0,0,,,,,,
127.92331401820857,2.2996100774307937,237.6437826497125,150.04555892489273,84.0,0.0,0,,,,,,
128.92331401820857,2.3115148393355556,237.75964633916152,149.05229380144016,84.0,0.0,0,,,,,,
129.92331401820857,2.3234196012403174,237.87551002861053,148.05902867798758,84.0,0.0,0,,,,,,
130.92331401820857,2.3353243631450793,237.99137371805955,147.065763554535,84.0,0.0,0,,,,,,
131.92331401820857,2.347229125049841,238.10723740750856,146.07249843108244,84.0,0.0,0,,,,,,
132.92331401820857,2.359133886954603,238.22310109695758,145.07923330762986,84.0,0.0,0,,,,,,
133.92331401820857,2.371038648859365,238.3389647864066,144.0859681841773,84.0,0.0,0,,,,,,
134.92331401820857,2.3829434107641267,238.4548284758556,143.09270306072472,84.0,0.0,0,,,,,,
135.92331401820857,2.3948481726688886,238.57069216530462,142.09943793727214,84.0,0.0,0,,,,,,
136.92331401820857,2.4067529345736505,238.68655585475364,141.10617281381957,84.0,0.0,0,,,,,,
137.92331401820857,2.4186576964784123,238.80241954420265,140.112907690367,84.0,0.0,0,,,,,,
138.92331401820857,2.430562458383174,238.91828323365166,139.11964256691442,84.0,0.0,0,,,,,,
139.92331401820857,2.442467220287936,239.03414692310068,138.12637744346185,84.0,0.0,0,,,,,,
140.92331401820857,2.454371982192698,239.1500106125497,137.13311232000927,84.0,0.0,0,,,,,,
141.92331401820857,2.46627674409746,239.2658743019987,136.1398471965567,84.0,0.0,0,,,,,,
142.92331401820857,2.4781815060022216,239.38173799144772,135.14658207310413,84.0,0.0,0,,,,,,
143.92331401820857,2.4900862679069835,239.49760168089674,134.15331694965155,84.0,0.0,0,,,,,,
144.92331401820857,2.5019910298117454,239.61346537034575,133.16005182619898,84.0,0.0,0,,,,,,
145.8929380637875,2.513534173211495,239.92469246700287,132.24173353493433,84.0,0.0,0,,,,,,
146.88831485994803,2.5253838969753106,240.43044556916908,131.38441867679643,84.0,0.0,0,,,,,,
147.8836916561085,2.537233620739126,241.1888693512485,130.7397727793372,84.0,0.0,0,,,,,,
148.8836916561085,2.549138382643888,242.17049006331794,130.54893049461938,84.0,0.0,0,,,,,,
149.8836916561085,2.5610431445486497,243.15211077538737,130.35808820990158,84.0,0.0,0,,,,,,
150.8836916561085,2.5729479064534115,244.1337314874568,130.16724592518378,84.0,0.0,0,,,,,,
151.8836916561085,2.5848526683581734,245.11535219952623,129.97640364046597,84.0,0.0,0,,,,,,
152.8836916561085,2.5967574302629353,246.09697291159566,129.78556135574817,84.0,0.0,0,,,,,,
153.8836916561085,2.608662192167697,247.07859362366509,129.59471907103037,84.0,0.0,0,,,,,,
154.8836916561085,2.620566954072459,248.0602143357345,129.40387678631257,84.0,0.0,0,,,,,,
155.8836916561085,2.632471715977221,249.04183504780394,129.21303450159476,84.0,0.0,0,,,,,,
156.8836916561085,2.6443764778819827,250.02345575987337,129.02219221687696,84.0,0.0,0,,,,,,
157.8836916561085,2.6562812397867446,251.0050764719428,128.83134993215916,84.0,0.0,0,,,,,,
158.8836916561085,2.6681860016915064,251.98669718401223,128.64050764744135,84.0,0.0,0,,,,,,
159.8836916561085,2.6800907635962683,252.96831789608166,128.44966536272355,84.0,0.0,0,,,,,,
160.8836916561085,2.69199552550103,253.9499386081511,128.25882307800575,84.0,0.0,0,,,,,,
161.8836916561085,2.703900287405792,254.93155932022052,128.06798079328794,84.0,0.0,0,,,,,,
162.8836916561085,2.715805049310554,255.91318003228994,127.87713850857013,84.0,0.0,0,,,,,,
163.8836916561085,2.7277098112153157,256.8948007443594,127.68629622385231,84.0,0.0,0,,,,,,
164.88369165610848,2.739614573120077,257.8764214564288,127.49545393913449,84.0,0.0,0,,,,,,
165.88369165610845,2.7515193350248386,258.8580421684982,127.30461165441668,84.0,0.0,0,,,,,,
166.88369165610843,2.7634240969296,259.8396628805676,127.11376936969886,84.0,0.0,0,,,,,,
167.8836916561084,2.7753288588343614,260.821283592637,126.92292708498104,84.0,0.0,0,,,,,,
168.88369165610837,2.787233620739123,261.8029043047064,126.73208480026322,84.0,0.0,0,,,,,,
169.88369165610834,2.7991383826438843,262.7845250167758,126.5412425155454,84.0,0.0,0,,,,,,
170.8836916561083,2.8110431445486457,263.7661457288452,126.35040023082759,84.0,0.0,0,,,,,,
171.88369165610828,2.822947906453407,264.7477664409146,126.15955794610977,84.0,0.0,0,,,,,,
172.88369165610825,2.8348526683581685,265.729387152984,125.96871566139195,84.0,0.0,0,,,,,,
173.88369165610823,2.84675743026293,266.7110078650534,125.77787337667414,84.0,0.0,0,,,,,,
174.8836916561082,2.8586621921676914,267.6926285771228,125.58703109195632,84.0,0.0,0,,,,,,
175.88369165610817,2.8705669540724528,268.6742492891922,125.3961888072385,84.0,0.0,0,,,,,,
176.88369165610814,2.882471715977214,269.6558700012616,125.20534652252068,84.0,0.0,0,,,,,,
177.8836916561081,2.8943764778819756,270.637490713331,125.01450423780287,84.0,0.0,0,,,,,,
178.88369165610808,2.906281239786737,271.6191114254004,124.82366195308505,84.0,0.0,0,,,,,,
179.88369165610806,2.9181860016914984,272.6007321374698,124.63281966836723,84.0,0.0,0,,,,,,
180.88369165610803,2.93009076359626,273.5823528495392,124.44197738364942,84.0,0.0,0,,,,,,
181.883691656108,2.9419955255010213,274.5639735616086,124.2511350989316,84.0,0.0,0,,,,,,
182.88369165610797,2.9539002874057827,275.545594273678,124.06029281421378,84.0,0.0,0,,,,,,
183.88369165610794,2.965805049310544,276.5272149857474,123.86945052949596,84.0,0.0,0,,,,,,
184.8836916561079,2.9777098112153055,277.5088356978168,123.67860824477815,84.0,0.0,0,,,,,,
185.88369165610789,2.989614573120067,278.4904564098862,123.48776596006033,84.0,0.0,0,,,,,,
186.88369165610786,3.0015193350248284,279.4720771219556,123.29692367534251,84.0,0.0,0,,,,,,
187.88369165610783,3.01342409692959,280.453697834025,123.1060813906247,84.0,0.0,0,,,,,,
188.8836916561078,3.025328858834351,281.4353185460944,122.91523910590688,84.0,0.0,0,,,,,,
189.9042361333586,3.037478197849242,282.38879142594595,122.55137031439722,84.0,0.0,0,,,,,,
190.9025702998269,3.049363128402436,283.38525250711365,122.49024403808325,84.0,0.0,0,,,,,,
191.9009044662952,3.06124805895563,284.373994625295,122.62830247379894,84.0,0.0,0,,,,,,
192.89923863276348,3.073132989508824,285.3155997523942,122.9600416673809,84.0,0.0,0,,,,,,
193.89757279923177,3.085017920062018,286.17252906340065,123.4722362240446,84.0,0.0,0,,,,,,
194.89590696570005,3.0969028506152116,286.91061949088134,124.14446656313922,84.0,0.0,0,,,,,,
195.89424113216833,3.1087877811684055,287.5004456986717,124.94993298239056,84.0,0.0,0,,,,,,
196.8925752986366,3.120672711721599,287.91849317717123,125.85652407745937,84.0,0.0,0,,,,,,
197.8925752986366,3.1325774736263607,287.95240915930947,126.85594876504499,84.0,0.0,0,,,,,,
198.8925752986366,3.1444822355311226,287.9863251414477,127.8553734526306,84.0,0.0,0,,,,,,
199.8925752986366,3.1563869974358845,288.02024112358595,128.85479814021622,84.0,0.0,0,,,,,,
200.8925752986366,3.1682917593406463,288.0541571057242,129.85422282780183,84.0,0.0,0,,,,,,
201.8925752986366,3.180196521245408,288.0880730878624,130.85364751538745,84.0,0.0,0,,,,,,
202.8925752986366,3.19210128315017,288.12198907000067,131.85307220297307,84.0,0.0,0,,,,,,
203.8925752986366,3.204006045054932,288.1559050521389,132.85249689055868,84.0,0.0,0,,,,,,
204.8925752986366,3.215910806959694,288.18982103427714,133.8519215781443,84.0,0.0,0,,,,,,
205.8925752986366,3.2278155688644556,288.2237370164154,134.85134626572992,84.0,0.0,0,,,,,,
206.8925752986366,3.2397203307692175,288.2576529985536,135.85077095331553,84.0,0.0,0,,,,,,
207.8925752986366,3.2516250926739794,288.29156898069186,136.85019564090115,84.0,0.0,0,,,,,,
208.8925752986366,3.2635298545787412,288.3254849628301,137.84962032848676,84.0,0.0,0,,,,,,
