Distance (in),Time (s),X (in),Y (in),Velocity (in/s),Orientation (deg),Touch,Way X (in),Way Y (in),Way Velocity (in/s),Way Orientation (deg),Way Turn Radius (in),Touch this Point
0.0,0.0,175.0,169.5,0.0,0.0,0,175.0,169.5,0.0,0.0,3.0,0.0
1.0000000000000102,0.16666666666666838,175.96183074172922,169.2263549301291,12.0,359.09488951531125,0,206.88,160.43,84.0,330.0,10.0,0.0
2.0000000000000204,0.25000000000000255,176.92366148345843,168.9527098602582,12.0,358.18977903062256,0,255.0,150.0,84.0,330.0,20.0,0
3.0000000000000306,0.33333333333333676,177.88549222518765,168.67906479038732,12.0,357.2846685459338,0,324.81,140.73,84.0,330.0,10.0,0
4.000000000000041,0.41666666666667096,178.84732296691686,168.40541972051642,12.0,356.3795580612451,0,335.0,220.04,84.0,330.0,10.0,0.0
5.0000000000000515,0.49988203642352413,179.80915370864608,168.13177465064553,12.034021669840772,355.4744475765564,0,380.89,190.53,84.0,330.0,10.0,0.0
6.000000000000062,0.5754254361308098,180.7709844503753,167.85812958077463,14.440826003808928,354.5693370918677,0,434.36,131.22,108.0,330.0,10.0,0.0
7.000000000000073,0.6393467743446668,181.7328151921045,167.58448451090374,16.847630337777083,353.66422660717893,0,477.81,77.58,144.0,330.0,3.0,0.0
8.000000000000083,0.694745267463343,182.69464593383373,167.31083944103284,19.254434671745237,352.7591161224902,0,527.21,42.61,0.0,330.0,3.0,0.0
9.000000000000094,0.7436262908033513,183.65647667556294,167.03719437116195,21.66123900571339,351.8540056378015,0,,,,,,
10.000000000000105,0.787361943265464,184.61830741729216,166.76354930129105,24.068043339681545,350.94889515311274,0,,,,,,
11.000000000000115,0.8269322954930899,185.58013815902137,166.48990423142016,26.4748476736497,350.04378466842405,0,,,,,,
12.000000000000126,0.8630617475270091,186.5419689007506,166.21625916154926,28.881652007617852,349.1386741837353,0,,,,,,
13.000000000000137,0.8963008433982148,187.5037996424798,165.94261409167837,31.288456341586006,348.2335636990466,0,,,,,,
14.000000000000147,0.9270777840197015,188.46563038420902,165.66896902180747,33.69526067555416,347.32845321435786,0,,,,,,
15.000000000000158,0.9557321770121202,189.42746112593824,165.39532395193658,36.10206500952231,346.4233427296691,0,,,,,,
16.000000000000167,0.9825378994888989,190.38929186766745,165.12167888206568,38.50886934349047,345.5182322449804,0,,,,,,
17.000000000000178,1.0077190327246608,191.35112260939667,164.84803381219479,40.91567367745862,344.6131217602917,0,,,,,,
18.00000000000019,1.0314612440612363,192.31295335112588,164.5743887423239,43.322478011426774,343.708011275603,0,,,,,,
19.0000000000002,1.0539200926228618,193.2747840928551,164.300743672453,45.72928234539493,342.80290079091424,0,,,,,,
20.00000000000021,1.075227205360814,194.23661483458432,164.0270986025821,48.13608667936308,341.89779030622555,0,,,,,,
21.00000000000022,1.0954949467456956,195.19844557631353,163.7534535327112,50.542891013331236,340.9926798215368,0,,,,,,
22.00000000000023,1.1148200024847688,196.16027631804275,163.4798084628403,52.94969534729939,340.0875693368481,0,,,,,,
23.00000000000024,1.1332861668576608,197.12210705977196,163.20616339296942,55.35649968126754,339.18245885215936,0,,,,,,
24.000000000000252,1.150966537001919,198.08393780150118,162.93251832309852,57.7633040152357,338.2773483674706,0,,,,,,
25.000000000000263,1.1679252593851872,199.0457685432304,162.65887325322763,60.17010834920385,337.3722378827819,0,,,,,,
26.000000000000274,1.1842189338318567,200.0075992849596,162.38522818335673,62.576912683172004,336.46712739809317,0,,,,,,
27.000000000000284,1.1998977526390293,200.96943002668883,162.11158311348584,64.98371701714017,335.5620169134045,0,,,,,,
28.000000000000295,1.2150064325804864,201.93126076841804,161.83793804361494,67.39052135110832,334.65690642871573,0,,,,,,
29.000000000000306,1.2295849834011907,202.89309151014726,161.56429297374405,69.79732568507647,333.75179594402704,0,,,,,,
30.000000000000316,1.2436693460584813,203.85492225187647,161.29064790387315,72.20413001904463,332.8466854593383,0,,,,,,
31.000000000000327,1.2572919263335656,204.8167529936057,161.01700283400226,74.61093435301278,331.9415749746496,0,,,,,,
32.000000000000334,1.2704820437427742,205.7785837353349,160.74335776413136,77.01773868698093,331.03646448996085,0,,,,,,
33.00000000000034,1.2832663113855456,206.74041447706412,160.46971269426047,79.42454302094909,330.1313540052721,0,,,,,,
33.145124830056076,1.285091952863188,206.88,160.43,79.56048425084283,330.13096684558104,0,,,,,,
34.14512483005608,1.2975874476276772,207.85730632439797,160.21816905728448,80.49720355546866,330.1282990754213,0,,,,,,
35.14512483005609,1.3099383775833389,208.83461264879594,160.00633811456896,81.43392286009448,330.12563130526155,0,,,,,,
36.1451248300561,1.322148049515846,209.8119189731939,159.79450717185344,82.37064216472031,330.1229635351018,0,,,,,,
37.145124830056105,1.3342196580343637,210.78922529759188,159.58267622913792,83.30736146934613,330.12029576494206,0,,,,,,
38.14512483005611,1.3461737046610953,211.76653162198986,159.3708452864224,84.0,330.1176279947823,0,,,,,,
39.14512483005612,1.3580784665658574,212.74383794638783,159.15901434370687,84.0,330.1149602246225,0,,,,,,
40.145124830056126,1.3699832284706195,213.7211442707858,158.94718340099135,84.0,330.11229245446276,0,,,,,,
41.14512483005613,1.3818879903753816,214.69845059518377,158.73535245827583,84.0,330.109624684303,0,,,,,,
42.14512483005614,1.3937927522801437,215.67575691958174,158.5235215155603,84.0,330.10695691414327,0,,,,,,
43.14512483005615,1.4056975141849057,216.65306324397972,158.31169057284478,84.0,330.1042891439835,0,,,,,,
44.145124830056155,1.4176022760896678,217.6303695683777,158.09985963012926,84.0,330.1016213738237,0,,,,,,
45.14512483005616,1.42950703799443,218.60767589277566,157.88802868741374,84.0,330.098953603664,0,,,,,,
46.14512483005617,1.441411799899192,219.58498221717363,157.67619774469821,84.0,330.0962858335042,0,,,,,,
47.145124830056176,1.453316561803954,220.5622885415716,157.4643668019827,84.0,330.0936180633445,0,,,,,,
48.14512483005618,1.4652213237087162,221.53959486596958,157.25253585926717,84.0,330.09095029318473,0,,,,,,
49.14512483005619,1.4771260856134782,222.51690119036755,157.04070491655165,84.0,330.08828252302493,0,,,,,,
50.1451248300562,1.4890308475182403,223.49420751476552,156.82887397383612,84.0,330.0856147528652,0,,,,,,
51.145124830056204,1.5009356094230024,224.4715138391635,156.6170430311206,84.0,330.08294698270544,0,,,,,,
52.14512483005621,1.5128403713277645,225.44882016356146,156.40521208840508,84.0,330.0802792125457,0,,,,,,
53.14512483005622,1.5247451332325266,226.42612648795944,156.19338114568956,84.0,330.07761144238594,0,,,,,,
54.145124830056226,1.5366498951372887,227.4034328123574,155.98155020297403,84.0,330.07494367222614,0,,,,,,
55.14512483005623,1.5485546570420508,228.38073913675538,155.7697192602585,84.0,330.0722759020664,0,,,,,,
56.14512483005624,1.5604594189468128,229.35804546115335,155.557888317543,84.0,330.06960813190665,0,,,,,,
57.14512483005625,1.572364180851575,230.33535178555132,155.34605737482747,84.0,330.0669403617469,0,,,,,,
58.145124830056254,1.584268942756337,231.3126581099493,155.13422643211194,84.0,330.06427259158716,0,,,,,,
59.14512483005626,1.596173704661099,232.28996443434727,154.92239548939642,84.0,330.0616048214274,0,,,,,,
60.14512483005627,1.6080784665658612,233.26727075874524,154.7105645466809,84.0,330.0589370512676,0,,,,,,
61.145124830056275,1.6199832284706233,234.2445770831432,154.49873360396538,84.0,330.05626928110786,0,,,,,,
62.14512483005628,1.6318879903753853,235.22188340754118,154.28690266124985,84.0,330.0536015109481,0,,,,,,
63.14512483005629,1.6437927522801474,236.19918973193916,154.07507171853433,84.0,330.05093374078837,0,,,,,,
64.1451248300563,1.6556975141849095,237.17649605633713,153.8632407758188,84.0,330.0482659706286,0,,,,,,
65.14512483005632,1.6676022760896716,238.1538023807351,153.6514098331033,84.0,330.0455982004688,0,,,,,,
66.14512483005633,1.6795070379944337,239.13110870513307,153.43957889038776,84.0,330.04293043030907,0,,,,,,
67.14512483005635,1.6914117998991958,240.10841502953105,153.22774794767224,84.0,330.0402626601493,0,,,,,,
68.14512483005636,1.7033165618039579,241.08572135392902,153.01591700495672,84.0,330.0375948899896,0,,,,,,
69.14512483005637,1.71522132370872,242.063027678327,152.8040860622412,84.0,330.03492711982983,0,,,,,,
70.14512483005639,1.727126085613482,243.04033400272496,152.59225511952567,84.0,330.0322593496701,0,,,,,,
71.1451248300564,1.739030847518244,244.01764032712293,152.38042417681015,84.0,330.0295915795103,0,,,,,,
72.14512483005642,1.7509356094230062,244.9949466515209,152.16859323409463,84.0,330.02692380935054,0,,,,,,
73.14512483005643,1.7628403713277683,245.97225297591888,151.9567622913791,84.0,330.0242560391908,0,,,,,,
74.14512483005645,1.7747451332325304,246.94955930031685,151.74493134866358,84.0,330.02158826903104,0,,,,,,
75.14512483005646,1.7866498951372924,247.92686562471482,151.53310040594806,84.0,330.0189204988713,0,,,,,,
76.14512483005647,1.7985546570420545,248.9041719491128,151.32126946323254,84.0,330.0162527287115,0,,,,,,
77.14512483005649,1.8104594189468166,249.88147827351077,151.10943852051702,84.0,330.01358495855175,0,,,,,,
78.1451248300565,1.8223641808515787,250.85878459790874,150.8976075778015,84.0,330.010917188392,0,,,,,,
79.14512483005652,1.8342689427563408,251.8360909223067,150.68577663508597,84.0,330.00824941823225,0,,,,,,
80.14512483005653,1.8461737046611029,252.81339724670468,150.47394569237045,84.0,330.0055816480725,0,,,,,,
81.14512483005655,1.858078466565865,253.79070357110265,150.26211474965493,84.0,330.0029138779127,0,,,,,,
82.14512483005656,1.869983228470627,254.76800989550063,150.0502838069394,84.0,330.00024610775296,0,,,,,,
82.38250189260884,1.8728091458819638,255.0,150.0,84.0,330.0002452610282,0,,,,,,
83.38250189260884,1.8847139077867257,255.99129844860036,149.8683664715868,84.0,330.0002416940251,0,,,,,,
84.38250189260884,1.8966186696914875,256.9825968972007,149.7367329431736,84.0,330.00023812702193,0,,,,,,
85.38250189260887,1.9085234315962498,257.9738953458011,149.6050994147604,84.0,330.0002345600187,0,,,,,,
86.3825018926089,1.9204281935010121,258.9651937944015,149.47346588634719,84.0,330.0002309930156,0,,,,,,
87.38250189260893,1.9323329554057744,259.9564922430019,149.34183235793398,84.0,330.00022742601243,0,,,,,,
88.38250189260896,1.9442377173105367,260.9477906916023,149.21019882952078,84.0,330.0002238590093,0,,,,,,
89.38250189260899,1.956142479215299,261.93908914020267,149.07856530110757,84.0,330.00022029200613,0,,,,,,
90.38250189260901,1.9680472411200614,262.93038758880306,148.94693177269437,84.0,330.00021672500293,0,,,,,,
91.38250189260904,1.9799520030248237,263.92168603740345,148.81529824428117,84.0,330.0002131579998,0,,,,,,
92.38250189260907,1.991856764929586,264.91298448600384,148.68366471586796,84.0,330.00020959099663,0,,,,,,
93.3825018926091,2.003761526834348,265.9042829346042,148.55203118745476,84.0,330.0002060239934,0,,,,,,
94.38250189260913,2.0156662887391104,266.8955813832046,148.42039765904156,84.0,330.0002024569903,0,,,,,,
95.38250189260916,2.0275710506438727,267.886879831805,148.28876413062835,84.0,330.00019888998713,0,,,,,,
96.38250189260918,2.039475812548635,268.8781782804054,148.15713060221515,84.0,330.000195322984,0,,,,,,
97.38250189260921,2.0513805744533973,269.8694767290058,148.02549707380194,84.0,330.00019175598084,0,,,,,,
98.38250189260924,2.0632853363581596,270.8607751776062,147.89386354538874,84.0,330.00018818897763,0,,,,,,
99.38250189260927,2.075190098262922,271.85207362620656,147.76223001697554,84.0,330.0001846219745,0,,,,,,
100.3825018926093,2.087094860167684,272.84337207480695,147.63059648856233,84.0,330.00018105497134,0,,,,,,
101.38250189260933,2.0989996220724465,273.83467052340734,147.49896296014913,84.0,330.00017748796813,0,,,,,,
102.38250189260935,2.110904383977209,274.82596897200773,147.36732943173593,84.0,330.000173920965,0,,,,,,
103.38250189260938,2.122809145881971,275.8172674206081,147.23569590332272,84.0,330.00017035396183,0,,,,,,
104.38250189260941,2.1347139077867334,276.8085658692085,147.10406237490952,84.0,330.0001667869587,0,,,,,,
105.38250189260944,2.1466186696914957,277.7998643178089,146.9724288464963,84.0,330.00016321995554,0,,,,,,
106.38250189260947,2.158523431596258,278.7911627664093,146.8407953180831,84.0,330.00015965295233,0,,,,,,
107.3825018926095,2.1704281935010203,279.7824612150097,146.7091617896699,84.0,330.0001560859492,0,,,,,,
108.38250189260953,2.1823329554057826,280.77375966361006,146.5775282612567,84.0,330.00015251894604,0,,,,,,
109.38250189260955,2.194237717310545,281.76505811221045,146.4458947328435,84.0,330.00014895194283,0,,,,,,
110.38250189260958,2.2061424792153073,282.75635656081084,146.3142612044303,84.0,330.0001453849397,0,,,,,,
111.38250189260961,2.2180472411200696,283.74765500941123,146.1826276760171,84.0,330.00014181793654,0,,,,,,
112.38250189260964,2.229952003024832,284.7389534580116,146.0509941476039,84.0,330.0001382509334,0,,,,,,
113.38250189260967,2.241856764929594,285.730251906612,145.91936061919068,84.0,330.00013468393024,0,,,,,,
114.3825018926097,2.2537615268343565,286.7215503552124,145.78772709077748,84.0,330.00013111692704,0,,,,,,
115.38250189260972,2.265666288739119,287.7128488038128,145.65609356236428,84.0,330.0001275499239,0,,,,,,
116.38250189260975,2.277571050643881,288.7041472524132,145.52446003395107,84.0,330.00012398292074,0,,,,,,
117.38250189260978,2.2894758125486434,289.69544570101357,145.39282650553787,84.0,330.00012041591754,0,,,,,,
118.38250189260981,2.3013805744534057,290.68674414961396,145.26119297712467,84.0,330.0001168489144,0,,,,,,
119.38250189260984,2.313285336358168,291.67804259821435,145.12955944871146,84.0,330.00011328191124,0,,,,,,
120.38250189260987,2.3251900982629303,292.66934104681474,144.99792592029826,84.0,330.0001097149081,0,,,,,,
121.3825018926099,2.3370948601676926,293.6606394954151,144.86629239188505,84.0,330.00010614790494,0,,,,,,
122.38250189260992,2.348999622072455,294.6519379440155,144.73465886347185,84.0,330.00010258090174,0,,,,,,
123.38250189260995,2.3609043839772172,295.6432363926159,144.60302533505865,84.0,330.0000990138986,0,,,,,,
124.38250189260998,2.3728091458819796,296.6345348412163,144.47139180664544,84.0,330.00009544689544,0,,,,,,
125.38250189261001,2.384713907786742,297.6258332898167,144.33975827823224,84.0,330.00009187989224,0,,,,,,
126.38250189261004,2.396618669691504,298.6171317384171,144.20812474981904,84.0,330.0000883128891,0,,,,,,
127.38250189261007,2.4085234315962665,299.60843018701746,144.07649122140583,84.0,330.00008474588594,0,,,,,,
128.3825018926101,2.420428193501029,300.59972863561785,143.94485769299263,84.0,330.0000811788828,0,,,,,,
129.38250189261012,2.432332955405791,301.59102708421824,143.81322416457942,84.0,330.00007761187965,0,,,,,,
130.38250189261015,2.4442377173105534,302.58232553281863,143.68159063616622,84.0,330.00007404487644,0,,,,,,
131.38250189261018,2.4561424792153157,303.573623981419,143.54995710775302,84.0,330.0000704778733,0,,,,,,
132.3825018926102,2.468047241120078,304.5649224300194,143.4183235793398,84.0,330.00006691087015,0,,,,,,
133.38250189261024,2.4799520030248403,305.5562208786198,143.2866900509266,84.0,330.00006334386694,0,,,,,,
134.38250189261026,2.4918567649296026,306.5475193272202,143.1550565225134,84.0,330.0000597768638,0,,,,,,
135.3825018926103,2.503761526834365,307.5388177758206,143.0234229941002,84.0,330.00005620986065,0,,,,,,
136.38250189261032,2.5156662887391272,308.53011622442096,142.891789465687,84.0,330.0000526428575,0,,,,,,
137.38250189261035,2.5275710506438895,309.52141467302135,142.7601559372738,84.0,330.00004907585435,0,,,,,,
138.38250189261038,2.539475812548652,310.51271312162174,142.6285224088606,84.0,330.00004550885114,0,,,,,,
139.3825018926104,2.551380574453414,311.50401157022213,142.4968888804474,84.0,330.000041941848,0,,,,,,
140.38250189261043,2.5632853363581765,312.4953100188225,142.36525535203418,84.0,330.00003837484485,0,,,,,,
141.38250189261046,2.5751900982629388,313.4866084674229,142.23362182362098,84.0,330.00003480784164,0,,,,,,
142.3825018926105,2.587094860167701,314.4779069160233,142.10198829520778,84.0,330.0000312408385,0,,,,,,
143.38149917024163,2.598987684901405,315.47054933594967,141.9894867979859,84.0,330.00002767741205,0,,,,,,
144.38108255565518,2.6108874871087093,316.469930164389,141.96936456792122,84.0,330.00002411189496,0,,,,,,
145.38066594106877,2.622787289316014,317.46632712236305,142.0491144678266,84.0,330.00002054637787,0,,,,,,
146.3802493264823,2.634687091523318,318.44978454083275,142.227939663064,84.0,330.0000169808608,0,,,,,,
147.37983271189586,2.646586893730622,319.4104760383606,142.5040533913944,84.0,330.0000134153437,0,,,,,,
148.37941609730942,2.6584866959379263,320.3388027030657,142.87469681571534,84.0,330.0000098498266,0,,,,,,
149.378999482723,2.670386498145231,321.2254890017783,143.33616658944945,84.0,330.00000628430945,0,,,,,,
150.3785828681366,2.6822863003525357,322.0616754581012,143.88385185915922,84.0,330.00000271879236,0,,,,,,
151.37816625355012,2.6941861025598395,322.8390071733692,144.51228033467035,84.0,330.00000268104213,0,,,,,,
152.3777496389637,2.706085904767144,323.54971730603523,145.21517296638643,84.0,330.0000026432919,0,,,,,,
153.37733302437726,2.7179857069744484,324.1867046753831,145.9855066834767,84.0,330.0000026055416,0,,,,,,
154.37691640979082,2.7298855091817527,324.74360471417833,146.8155845660785,84.0,330.0000025677914,0,,,,,,
155.3764997952044,2.7417853113890573,325.21485306132,147.69711275037616,84.0,330.0000025300411,0,,,,,,
156.37608318061797,2.7536851135963616,325.59574115909743,148.6212832981466,84.0,330.0000024922909,0,,,,,,
157.37566656603153,2.765584915803666,325.8824632995425,149.57886220276671,84.0,330.00000245454066,0,,,,,,
158.37566656603153,2.7774896777084277,326.0098989235401,150.5707090466576,84.0,330.0000024167747,0,,,,,,
159.37566656603153,2.7893944396131896,326.1373345475377,151.5625558905485,84.0,330.00000237900866,0,,,,,,
160.37566656603153,2.8012992015179514,326.2647701715353,152.5544027344394,84.0,330.0000023412427,0,,,,,,
161.37566656603153,2.8132039634227133,326.3922057955329,153.5462495783303,84.0,330.0000023034767,0,,,,,,
162.37566656603153,2.825108725327475,326.5196414195305,154.5380964222212,84.0,330.00000226571075,0,,,,,,
163.37566656603153,2.837013487232237,326.6470770435281,155.5299432661121,84.0,330.0000022279448,0,,,,,,
164.37566656603153,2.848918249136999,326.7745126675257,156.521790110003,84.0,330.00000219017875,0,,,,,,
165.37566656603153,2.8608230110417607,326.9019482915233,157.5136369538939,84.0,330.0000021524128,0,,,,,,
166.37566656603153,2.8727277729465226,327.0293839155209,158.5054837977848,84.0,330.0000021146468,0,,,,,,
167.37566656603153,2.8846325348512845,327.1568195395185,159.4973306416757,84.0,330.00000207688083,0,,,,,,
168.37566656603153,2.8965372967560463,327.2842551635161,160.4891774855666,84.0,330.00000203911486,0,,,,,,
169.37566656603153,2.908442058660808,327.4116907875137,161.48102432945748,84.0,330.00000200134883,0,,,,,,
170.37566656603153,2.92034682056557,327.5391264115113,162.47287117334838,84.0,330.00000196358286,0,,,,,,
171.37566656603153,2.932251582470332,327.6665620355089,163.46471801723928,84.0,330.0000019258169,0,,,,,,
172.37566656603153,2.9441563443750938,327.7939976595065,164.45656486113018,84.0,330.0000018880509,0,,,,,,
173.37566656603153,2.9560611062798556,327.9214332835041,165.44841170502107,84.0,330.00000185028495,0,,,,,,
174.37566656603153,2.9679658681846175,328.0488689075017,166.44025854891197,84.0,330.0000018125189,0,,,,,,
175.37566656603153,2.9798706300893794,328.1763045314993,167.43210539280287,84.0,330.00000177475295,0,,,,,,
176.37566656603153,2.991775391994141,328.3037401554969,168.42395223669376,84.0,330.000001736987,0,,,,,,
177.37566656603153,3.003680153898903,328.4311757794945,169.41579908058466,84.0,330.000001699221,0,,,,,,
178.37566656603153,3.015584915803665,328.5586114034921,170.40764592447556,84.0,330.00000166145503,0,,,,,,
179.37566656603153,3.027489677708427,328.6860470274897,171.39949276836646,84.0,330.00000162368906,0,,,,,,
