Distance (in),Time (s),X (in),Y (in),Velocity (in/s),Orientation (deg),Touch,Way X (in),Way Y (in),Way Velocity (in/s),Way Orientation (deg),Way Turn Radius (in),Touch this Point
0.0,0.0,149.0,162.0,0.0,0.0,0,149.0,162.0,0.0,0.0,3.0,0.0
1.0000000000000053,0.16666666666666755,149.99340129422214,162.11469031623372,12.0,0.0,0,171.78,164.63,84.0,0.0,3.0,0.0
2.0000000000000107,0.25000000000000133,150.98680258844428,162.22938063246744,12.0,0.0,0,225.16,202.0,84.0,0.0,12.0,0
3.000000000000016,0.3333333333333351,151.98020388266642,162.34407094870116,12.0,0.0,0,240.0,130.79,84.0,0.0,30.0,0
4.000000000000021,0.41666666666666885,152.97360517688855,162.45876126493488,12.0,0.0,0,287.99,126.46,84.0,15.0,5.0,0
5.000000000000027,0.49222983700475154,153.9670064711107,162.5734515811686,14.46792069538196,0.0,0,290.0,180.69,84.0,15.0,10.0,0
6.000000000000032,0.5550647756411714,154.96040776533283,162.68814189740232,17.36150483445835,0.0,0,351.63,205.0,108.0,15.0,10.0,0
7.000000000000037,0.608232800641219,155.95380905955497,162.80283221363604,20.255088973534743,0.0,0,406.49,215.0,144.0,15.0,3.0,0
8.000000000000043,0.6543117556412602,156.9472103537771,162.91752252986976,23.148673112611135,0.0,0,480.0,230.0,240.0,0.0,3.0,0
9.000000000000048,0.6949696571118849,157.94061164799925,163.03221284610348,26.042257251687527,0.0,0,541.14,236.06,0.0,15.0,3.0,0
10.000000000000053,0.7313477794803385,158.9340129422214,163.1469031623372,28.93584139076392,0.0,0,,,,,,
11.000000000000059,0.7642613187660822,159.92741423644352,163.26159347857092,31.82942552984031,0.0,0,,,,,,
12.000000000000064,0.7943128111574134,160.92081553066566,163.37628379480464,34.7230096689167,0.0,0,,,,,,
13.00000000000007,0.8219601841574381,161.9142168248878,163.49097411103835,37.6165938079931,0.0,0,,,,,,
14.000000000000075,0.8475596036019054,162.90761811910994,163.60566442727207,40.510177947069494,0.0,0,,,,,,
15.00000000000008,0.871393545843306,163.90101941333208,163.7203547435058,43.40376208614589,0.0,0,,,,,,
16.000000000000085,0.893689814391713,164.89442070755422,163.8350450597395,46.297346225222284,0.0,0,,,,,,
17.000000000000092,0.9146347939371864,165.88782200177636,163.94973537597323,49.19093036429868,0.0,0,,,,,,
18.0000000000001,0.9343829175086327,166.8812232959985,164.06442569220695,52.084514503375075,0.0,0,,,,,,
19.000000000000107,0.9530635749410818,167.87462459022063,164.17911600844067,54.97809864245147,0.0,0,,,,,,
20.000000000000114,0.9707862499410977,168.86802588444277,164.2938063246744,57.871682781527866,0.0,0,,,,,,
21.00000000000012,0.9876444042094055,169.8614271786649,164.4084966409081,60.76526692060426,0.0,0,,,,,,
22.000000000000128,1.0037184582791874,170.85482847288705,164.52318695714183,63.65885105968066,0.0,0,,,,,,
22.93131701407489,1.018239600949702,171.78,164.63,64.61163497663009,0.0,0,,,,,,
23.93131701407488,1.033595121166812,172.59920308017942,165.2035035426434,65.63468502570063,0.0,0,,,,,,
24.931317014074875,1.0487131453021408,173.41840616035884,165.7770070852868,66.65773507477118,0.0,0,,,,,,
25.931317014074867,1.0636009079263165,174.23760924053826,166.35051062793022,67.68078512384173,0.0,0,,,,,,
26.93131701407486,1.078265318001648,175.05681232071768,166.92401417057363,68.70383517291228,0.0,0,,,,,,
27.931317014074853,1.0927129781329734,175.8760154008971,167.49751771321704,69.72688522198283,0.0,0,,,,,,
28.931317014074846,1.1069502024165279,176.69521848107652,168.07102125586044,70.74993527105337,0.0,0,,,,,,
29.93131701407484,1.120983033007594,177.51442156125594,168.64452479850385,71.77298532012392,0.0,0,,,,,,
30.931317014074832,1.1348172555157345,178.33362464143536,169.21802834114726,72.79603536919447,0.0,0,,,,,,
31.931317014074825,1.1484584133257758,179.15282772161478,169.79153188379067,73.81908541826502,0.0,0,,,,,,
32.93131701407482,1.1619118209332584,179.9720308017942,170.36503542643408,74.84213546733557,0.0,0,,,,,,
33.931317014074814,1.175182576374633,180.79123388197362,170.93853896907748,75.86518551640611,0.0,0,,,,,,
34.93131701407481,1.1882755728249574,181.61043696215305,171.5120425117209,76.88823556547666,0.0,0,,,,,,
35.9313170140748,1.2011955094291158,182.42964004233247,172.0855460543643,77.91128561454721,0.0,0,,,,,,
36.93131701407479,1.2139469014265563,183.2488431225119,172.6590495970077,78.93433566361776,0.0,0,,,,,,
37.931317014074786,1.22653408962413,184.0680462026913,173.23255313965112,79.9573857126883,0.0,0,,,,,,
38.93131701407478,1.2389612492667597,184.88724928287073,173.80605668229452,80.98043576175886,0.0,0,,,,,,
39.93131701407477,1.2512323983512983,185.70645236305015,174.37956022493793,82.0034858108294,0.0,0,,,,,,
40.931317014074764,1.2633514054249957,186.52565544322957,174.95306376758134,83.02653585989995,0.0,0,,,,,,
41.93131701407476,1.2753255506690637,187.344858523409,175.52656731022475,84.0,0.0,0,,,,,,
42.93131701407475,1.2872303125738256,188.1640616035884,176.10007085286816,84.0,0.0,0,,,,,,
43.93131701407474,1.2991350744785874,188.98326468376783,176.67357439551157,84.0,0.0,0,,,,,,
44.931317014074736,1.3110398363833493,189.80246776394725,177.24707793815497,84.0,0.0,0,,,,,,
45.93131701407473,1.3229445982881112,190.62167084412667,177.82058148079838,84.0,0.0,0,,,,,,
46.93131701407472,1.334849360192873,191.4408739243061,178.3940850234418,84.0,0.0,0,,,,,,
47.931317014074715,1.346754122097635,192.2600770044855,178.9675885660852,84.0,0.0,0,,,,,,
48.93131701407471,1.3586588840023968,193.07928008466493,179.5410921087286,84.0,0.0,0,,,,,,
49.9313170140747,1.3705636459071586,193.89848316484435,180.114595651372,84.0,0.0,0,,,,,,
50.93131701407469,1.3824684078119205,194.71768624502377,180.68809919401542,84.0,0.0,0,,,,,,
51.931317014074686,1.3943731697166823,195.5368893252032,181.26160273665883,84.0,0.0,0,,,,,,
52.93131701407468,1.4062779316214442,196.3560924053826,181.83510627930224,84.0,0.0,0,,,,,,
53.93131701407467,1.418182693526206,197.17529548556203,182.40860982194565,84.0,0.0,0,,,,,,
54.931317014074665,1.430087455430968,197.99449856574145,182.98211336458905,84.0,0.0,0,,,,,,
55.93131701407466,1.4419922173357298,198.81370164592087,183.55561690723246,84.0,0.0,0,,,,,,
56.93131701407465,1.4538969792404917,199.6329047261003,184.12912044987587,84.0,0.0,0,,,,,,
57.931317014074644,1.4658017411452535,200.4521078062797,184.70262399251928,84.0,0.0,0,,,,,,
58.93131701407464,1.4777065030500154,201.27131088645913,185.2761275351627,84.0,0.0,0,,,,,,
59.93131701407463,1.4896112649547772,202.09051396663855,185.8496310778061,84.0,0.0,0,,,,,,
60.93131701407462,1.501516026859539,202.90971704681797,186.4231346204495,84.0,0.0,0,,,,,,
61.931317014074615,1.513420788764301,203.7289201269974,186.9966381630929,84.0,0.0,0,,,,,,
62.93131701407461,1.5253255506690628,204.54812320717681,187.57014170573632,84.0,0.0,0,,,,,,
63.9313170140746,1.5372303125738247,205.36732628735624,188.14364524837973,84.0,0.0,0,,,,,,
64.9313170140746,1.5491350744785866,206.18652936753566,188.71714879102313,84.0,0.0,0,,,,,,
65.9313170140746,1.5610398363833484,207.00573244771508,189.29065233366654,84.0,0.0,0,,,,,,
66.9313170140746,1.5729445982881103,207.8249355278945,189.86415587630995,84.0,0.0,0,,,,,,
67.9313170140746,1.5848493601928721,208.64413860807392,190.43765941895336,84.0,0.0,0,,,,,,
68.9313170140746,1.596754122097634,209.46334168825334,191.01116296159677,84.0,0.0,0,,,,,,
69.93131667901028,1.608658880013535,210.28259515355288,191.5845939421569,84.0,0.0,0,,,,,,
70.93102735227474,1.6205601975523978,211.1267934995453,192.1200849158087,84.0,0.0,0,,,,,,
71.9307380255392,1.6324615150912605,212.01263491451,192.58344915458014,84.0,0.0,0,,,,,,
72.93044869880364,1.644362832630123,212.9339712811281,192.97147071298355,84.0,0.0,0,,,,,,
73.9301593720681,1.6562641501689856,213.88440813197425,193.28145655587403,84.0,0.0,0,,,,,,
74.92987004533256,1.6681654677078483,214.85734902984828,193.5112552492623,84.0,0.0,0,,,,,,
75.929580718597,1.6800667852467106,215.8460413498634,193.6592718921844,84.0,0.0,0,,,,,,
76.92929139186147,1.6919681027855733,216.84362314554377,193.72447918599468,84.0,0.0,0,,,,,,
77.92900206512593,1.703869420324436,217.84317077366,193.70642456425676,84.0,0.0,0,,,,,,
78.92871273839037,1.7157707378632985,218.83774694726708,193.6052333337476,84.0,0.0,0,,,,,,
79.92842341165485,1.7276720554021612,219.82044888343512,193.42160780477496,84.0,0.0,0,,,,,,
80.92813408491931,1.7395733729410239,220.78445621150755,193.1568224168444,84.0,0.0,0,,,,,,
81.92784475818375,1.7514746904798864,221.72307830938308,192.81271489350527,84.0,0.0,0,,,,,,
82.92755543144821,1.763376008018749,222.62980073928736,192.39167348776544,84.0,0.0,0,,,,,,
83.92726610471267,1.7752773255576118,223.49833046075005,191.89662040659655,84.0,0.0,0,,,,,,
84.9269767779771,1.787178643096474,224.32263950699038,191.330991529571,84.0,0.0,0,,,,,,
85.92668745124158,1.7990799606353367,225.0970068215782,190.698712562392,84.0,0.0,0,,,,,,
86.92639812450605,1.8109812781741994,225.81605796500594,190.0041717908212,84.0,0.0,0,,,,,,
87.9261087977705,1.8228825957130619,226.47480241559185,189.25218962410372,84.0,0.0,0,,,,,,
88.92581947103496,1.8347839132519246,227.06866820582923,188.44798513927128,84.0,0.0,0,,,,,,
89.92553014429943,1.8466852307907873,227.59353365379133,187.59713985852133,84.0,0.0,0,,,,,,
90.92524081756386,1.8585865483296495,228.04575596936226,186.70555901107198,84.0,0.0,0,,,,,,
91.92495149082832,1.8704878658685122,228.42219653675448,185.77943054835188,84.0,0.0,0,,,,,,
92.92495149082832,1.882392627773274,228.626211179347,184.80046271149112,84.0,0.0,0,,,,,,
93.92495149082832,1.894297389678036,228.8302258219395,183.82149487463036,84.0,0.0,0,,,,,,
94.92495149082832,1.9062021515827978,229.03424046453202,182.8425270377696,84.0,0.0,0,,,,,,
95.92495149082832,1.9181069134875597,229.23825510712453,181.86355920090884,84.0,0.0,0,,,,,,
96.92495149082832,1.9300116753923215,229.44226974971704,180.88459136404808,84.0,0.0,0,,,,,,
97.92495149082832,1.9419164372970834,229.64628439230955,179.90562352718732,84.0,0.0,0,,,,,,
98.92495149082832,1.9538211992018453,229.85029903490206,178.92665569032656,84.0,0.0,0,,,,,,
99.92495149082832,1.9657259611066071,230.05431367749458,177.9476878534658,84.0,0.0,0,,,,,,
100.92495149082832,1.977630723011369,230.2583283200871,176.96872001660503,84.0,0.0,0,,,,,,
101.92495149082832,1.9895354849161309,230.4623429626796,175.98975217974427,84.0,0.0,0,,,,,,
102.92495149082832,2.0014402468208927,230.6663576052721,175.0107843428835,84.0,0.0,0,,,,,,
103.92495149082832,2.0133450087256546,230.87037224786462,174.03181650602275,84.0,0.0,0,,,,,,
104.92495149082832,2.0252497706304164,231.07438689045713,173.052848669162,84.0,0.0,0,,,,,,
105.92495149082832,2.0371545325351783,231.27840153304965,172.07388083230123,84.0,0.0,0,,,,,,
106.92495149082832,2.04905929443994,231.48241617564216,171.09491299544047,84.0,0.0,0,,,,,,
107.92495149082832,2.060964056344702,231.68643081823467,170.1159451585797,84.0,0.0,0,,,,,,
108.92495149082832,2.072868818249464,231.89044546082718,169.13697732171894,84.0,0.0,0,,,,,,
109.92495149082832,2.0847735801542258,232.0944601034197,168.15800948485818,84.0,0.0,0,,,,,,
110.92495149082832,2.0966783420589876,232.2984747460122,167.17904164799742,84.0,0.0,0,,,,,,
111.92495149082832,2.1085831039637495,232.50248938860472,166.20007381113666,84.0,0.0,0,,,,,,
112.92495149082832,2.1204878658685113,232.70650403119723,165.2211059742759,84.0,0.0,0,,,,,,
113.92495149082832,2.132392627773273,232.91051867378974,164.24213813741514,84.0,0.0,0,,,,,,
114.92495149082832,2.144297389678035,233.11453331638225,163.26317030055438,84.0,0.0,0,,,,,,
115.92495149082832,2.156202151582797,233.31854795897476,162.28420246369362,84.0,0.0,0,,,,,,
116.92495149082832,2.168106913487559,233.52256260156727,161.30523462683286,84.0,0.0,0,,,,,,
117.92495149082832,2.1800116753923207,233.72657724415978,160.3262667899721,84.0,0.0,0,,,,,,
118.92495149082832,2.1919164372970825,233.9305918867523,159.34729895311133,84.0,0.0,0,,,,,,
119.92495149082832,2.2038211992018444,234.1346065293448,158.36833111625057,84.0,0.0,0,,,,,,
120.92495149082832,2.2157259611066062,234.33862117193732,157.3893632793898,84.0,0.0,0,,,,,,
121.92495149082832,2.227630723011368,234.54263581452983,156.41039544252905,84.0,0.0,0,,,,,,
122.92495149082832,2.23953548491613,234.74665045712234,155.4314276056683,84.0,0.0,0,,,,,,
123.92495149082832,2.251440246820892,234.95066509971485,154.45245976880753,84.0,0.0,0,,,,,,
124.92495149082832,2.2633450087256537,235.15467974230737,153.47349193194677,84.0,0.0,0,,,,,,
125.93149160701917,2.275327629156497,235.47190210540856,152.518246948788,84.0,0.0,0,,,,,,
126.93144531136586,2.287231839922529,235.69327181827146,151.54310446634574,84.0,0.0,0,,,,,,
127.93139901571257,2.299136050688561,235.94701728969858,150.5758813035922,84.0,0.0,0,,,,,,
128.93135272005927,2.3110402614545933,236.23285660638174,149.61765205342564,84.0,0.0,0,,,,,,
129.931306424406,2.322944472220626,236.5504721984864,148.66948131643323,84.0,0.0,0,,,,,,
130.93126012875265,2.3348486829866575,236.89951119247445,147.73242251811135,84.0,0.0,0,,,,,,
131.93121383309938,2.34675289375269,237.27958580314947,146.80751673850082,84.0,0.0,0,,,,,,
132.93116753744607,2.358657104518722,237.69027376448938,145.89579155553878,84.0,0.0,0,,,,,,
133.93112124179274,2.370561315284754,238.13111879878738,144.99825990341088,84.0,0.0,0,,,,,,
134.93107494613946,2.3824655260507863,238.60163112358038,144.1159189471731,84.0,0.0,0,,,,,,
135.93102865048618,2.394369736816819,239.10128799580116,143.24974897489327,84.0,0.0,0,,,,,,
136.93098235483285,2.4062739475828505,239.6295342925504,142.4007123085429,84.0,0.0,0,,,,,,
137.93093605917954,2.4181781583488826,240.1857831278427,141.56975223484943,84.0,0.0,0,,,,,,
138.93088976352627,2.430082369114915,240.76941650464178,140.75779195729712,84.0,0.0,0,,,,,,
139.93084346787296,2.4419865798809473,241.37978600146016,139.96573357044022,84.0,0.0,0,,,,,,
140.93079717221966,2.4538907906469793,242.01621349276098,139.19445705766856,84.0,0.0,0,,,,,,
141.93075087656635,2.4657950014130114,242.67799190236087,138.4448193135387,84.0,0.0,0,,,,,,
142.93070458091307,2.477699212179044,243.36438598899753,137.71765319175705,84.0,0.0,0,,,,,,
143.93065828525977,2.489603422945076,244.07463316318874,137.01376657987265,84.0,0.0,0,,,,,,
144.9306119896065,2.5015076337111086,244.80794433447562,136.33394150170727,84.0,0.0,0,,,,,,
145.93056569395316,2.5134118444771403,245.56350478810856,135.67893324852062,84.0,0.34887561473621426,0,,,,,,
146.93051939829985,2.5253160552431724,246.34047509020215,135.04946953987547,84.0,0.6977512294724384,0,,,,,,
147.93047310264654,2.5372202660092045,247.13799202035293,134.4462497151353,84.0,1.0466268442086626,0,,,,,,
148.93042680699324,2.5491244767752366,247.95516953068457,133.8699439564925,84.0,1.3955024589448868,0,,,,,,
149.93038051133996,2.561028687541269,248.79109973025425,133.32119254439033,84.0,1.744378073681121,0,,,,,,
150.93033421568663,2.5729328983073008,249.64485389372692,132.80060514616625,84.0,2.0932536884173354,0,,,,,,
151.93028792003332,2.584837109073333,250.515483493197,132.3087601387063,84.0,2.4421293031535596,0,,,,,,
152.93024162438005,2.5967413198393654,251.40202125201043,131.84620396586374,84.0,2.7910049178897935,0,,,,,,
153.93019532872674,2.6086455306053975,252.30348221941722,131.41345053135547,84.0,3.1398805326260177,0,,,,,,
154.93014903307343,2.6205497413714296,253.21886486485968,131.01098062781057,84.0,3.488756147362242,0,,,,,,
155.93010273742016,2.632453952137462,254.14715219068125,130.63924140260593,84.0,3.837631762098476,0,,,,,,
156.93005644176685,2.6443581629034942,255.08731286201916,130.29864586108178,84.0,4.1865073768347,0,,,,,,
157.93001014611355,2.6562623736695263,256.03830235262603,129.98957240768928,84.0,4.535382991570924,0,,,,,,
158.92996385046027,2.668166584435559,256.99906410534714,129.71236442558018,84.0,4.884258606307158,0,,,,,,
159.92991755480696,2.680070795201591,257.968530705964,129.46732989510517,84.0,5.233134221043382,0,,,,,,
160.92987125915366,2.691975005967623,258.94562506910046,129.25474105164528,84.0,5.582009835779607,0,,,,,,
161.9298249635004,2.7038792167336556,259.9292616348735,129.07483408315613,84.0,5.93088545051585,0,,,,,,
162.92977866784707,2.7157834274996873,260.91834757495894,128.92780886776112,84.0,6.279761065252065,0,,,,,,
163.92977866784705,2.7276881894044487,261.91430179305155,128.83794677640165,84.0,6.628652832160561,0,,,,,,
164.92977866784702,2.73959295130921,262.91025601114416,128.7480846850422,84.0,6.9775445990690566,0,,,,,,
165.929778667847,2.7514977132139715,263.90621022923676,128.65822259368272,84.0,7.326436365977552,0,,,,,,
166.92977866784696,2.763402475118733,264.90216444732937,128.56836050232326,84.0,7.675328132886048,0,,,,,,
167.92977866784693,2.7753072370234944,265.898118665422,128.4784984109638,84.0,8.024219899794545,0,,,,,,
168.9297786678469,2.7872119989282558,266.8940728835146,128.38863631960433,84.0,8.373111666703041,0,,,,,,
169.92977866784688,2.799116760833017,267.8900271016072,128.29877422824487,84.0,8.722003433611537,0,,,,,,
170.92977866784685,2.8110215227377786,268.8859813196998,128.2089121368854,84.0,9.070895200520033,0,,,,,,
171.92977866784682,2.82292628464254,269.8819355377924,128.11905004552594,84.0,9.419786967428529,0,,,,,,
172.9297786678468,2.8348310465473014,270.877889755885,128.02918795416647,84.0,9.768678734337024,0,,,,,,
173.92977866784676,2.846735808452063,271.8738439739776,127.939325862807,84.0,10.11757050124552,0,,,,,,
174.92977866784673,2.8586405703568243,272.8697981920702,127.84946377144752,84.0,10.466462268154016,0,,,,,,
175.9297786678467,2.8705453322615857,273.8657524101628,127.75960168008804,84.0,10.815354035062512,0,,,,,,
176.92977866784668,2.882450094166347,274.86170662825543,127.66973958872856,84.0,11.164245801971008,0,,,,,,
177.92977866784665,2.8943548560711085,275.85766084634804,127.57987749736908,84.0,11.513137568879504,0,,,,,,
178.92977866784662,2.90625961797587,276.85361506444065,127.4900154060096,84.0,11.862029335788,0,,,,,,
179.9297786678466,2.9181643798806314,277.84956928253325,127.40015331465013,84.0,12.210921102696496,0,,,,,,
180.92977866784656,2.930069141785393,278.84552350062586,127.31029122329065,84.0,12.559812869604992,0,,,,,,
181.92977866784653,2.941973903690154,279.84147771871847,127.22042913193117,84.0,12.908704636513487,0,,,,,,
182.9297786678465,2.9538786655949156,280.8374319368111,127.13056704057169,84.0,13.257596403421983,0,,,,,,
183.92977866784648,2.965783427499677,281.8333861549037,127.04070494921221,84.0,13.60648817033048,0,,,,,,
184.93050494546097,2.9776968355665163,282.827583176618,126.92657622924007,84.0,13.95563332951917,0,,,,,,
185.92883911192925,2.98958176611971,283.8255339712691,126.95424063585178,84.0,14.30394390082342,0,,,,,,
186.92717327839753,3.001466696672904,284.79809612228837,127.17961581270745,84.0,14.65225447212767,0,,,,,,
187.9255074448658,3.0133516272260974,285.70649664581197,127.59371676271836,84.0,15.000565043431909,0,,,,,,
188.92384161133407,3.0252365577792912,286.51452047959066,128.1800345877787,84.0,15.000554398685418,0,,,,,,
189.92217577780235,3.037121488332485,287.1899542632384,128.91519464643613,84.0,15.000543753938928,0,,,,,,
190.92050994427063,3.049006418885679,287.70587058325566,129.7698884270838,84.0,15.000533109192437,0,,,,,,
191.9188441107389,3.0608913494388723,288.0417014840314,130.7100419858294,84.0,15.000522464445947,0,,,,,,
192.9188441107389,3.072796111343634,288.0787404068711,131.70935580950788,84.0,15.000511801937492,0,,,,,,
193.9188441107389,3.084700873248396,288.11577932971073,132.70866963318636,84.0,15.000501139429037,0,,,,,,
194.9188441107389,3.096605635153158,288.1528182525504,133.70798345686484,84.0,15.000490476920582,0,,,,,,
195.9188441107389,3.1085103970579198,288.18985717539005,134.70729728054332,84.0,15.000479814412127,0,,,,,,
196.9188441107389,3.1204151589626816,288.2268960982297,135.7066111042218,84.0,15.000469151903673,0,,,,,,
197.9188441107389,3.1323199208674435,288.26393502106936,136.70592492790027,84.0,15.000458489395218,0,,,,,,
198.9188441107389,3.1442246827722053,288.300973943909,137.70523875157875,84.0,15.000447826886763,0,,,,,,
199.9188441107389,3.156129444676967,288.33801286674867,138.70455257525722,84.0,15.000437164378308,0,,,,,,
