Distance (in),Time (s),X (in),Y (in),Velocity (in/s),Orientation (deg),Touch,Way X (in),Way Y (in),Way Velocity (in/s),Way Orientation (deg),Way Turn Radius (in),Touch this Point
0.0,0.0,180.0,105.0,12.0,0.0,0,180.0,105.0,12.0,0.0,6.0,0.0
1.000000000000003,0.07870354495112909,180.99864793637747,105.05198364328358,13.411815963841331,0.0,0,215.54,106.85,60.0,0.0,24.0,1.0
2.000000000000006,0.14953649251702858,181.99729587275493,105.10396728656715,14.823631927682662,0.0,0,232.0,155.27,78.0,0.0,24.0,1.0
3.0000000000000093,0.21392990055235692,182.9959438091324,105.15595092985073,16.235447891523993,0.0,0,269.72,174.77,108.0,0.0,24.0,0.0
4.000000000000012,0.27295705324723,183.99459174550987,105.20793457313431,17.647263855365324,0.0,0,303.47,177.52,108.0,0.0,24.0,0
5.000000000000016,0.327443547945025,184.99323968188733,105.25991821641789,19.059079819206655,0.0,0,345.97,175.0,102.0,0.0,24.0,0
6.0000000000000195,0.3780380643728554,185.9918876182648,105.31190185970146,20.470895783047986,0.0,0,390.0,167.0,78.0,0.0,24.0,0.0
7.000000000000023,0.425259543643218,186.99053555464226,105.36388550298504,21.882711746889317,0.0,0,407.0,135.18,78.0,0.0,24.0,1.0
8.000000000000027,0.46952962353325145,187.98918349101973,105.41586914626862,23.294527710730648,0.0,0,420.15,98.85,78.0,0.0,24.0,1.0
9.00000000000003,0.5111955338027968,188.9878314273972,105.4678527895522,24.70634367457198,0.0,0,453.49,100.93,84.0,0.0,24.0,1.0
10.000000000000034,0.5505466315928469,189.98647936377466,105.51983643283577,26.11815963841331,0.0,0,477.65,121.01,84.0,0.0,30.0,1.0
11.000000000000037,0.5878265853326725,190.98512730015213,105.57182007611935,27.52997560225464,0.0,0,475.15,154.77,84.0,0.0,30.0,1.0
12.00000000000004,0.6232425126231664,191.9837752365296,105.62380371940293,28.941791566095972,0.0,0,455.57,170.19,84.0,0.0,24.0,1.0
13.000000000000044,0.6569719424017039,192.98242317290706,105.6757873626865,30.353607529937303,0.0,0,405.56,165.19,78.0,0.0,24.0,1.0
14.000000000000048,0.689168194774611,193.98107110928453,105.72777100597008,31.765423493778634,0.0,0,407.0,130.6,78.0,0.0,6.0,1.0
15.000000000000052,0.7199645913051437,194.979719045662,105.77975464925366,33.17723945761997,0.0,0,394.31,103.0,78.0,0.0,24.0,1.0
16.000000000000053,0.7494777881468583,195.97836698203946,105.83173829253724,34.589055421461296,0.0,0,348.89,101.0,108.0,0.0,12.0,0
17.000000000000057,0.7778104425420795,196.97701491841693,105.88372193582082,36.00087138530263,0.0,0,290.13,101.0,108.0,0.0,12.0,0
18.00000000000006,0.8050533665261144,197.9756628547944,105.9357055791044,37.412687349143965,0.0,0,254.8,106.1,78.0,0.0,12.0,0.0
19.000000000000064,0.8312872817927941,198.97431079117186,105.98768922238797,38.8245033129853,0.0,0,232.63,119.35,60.0,0.0,20.0,0.0
19.999778291810937,0.8565787527721526,199.9721994002211,106.04912989870317,40.23600626566591,0.0,0,200.38,165.0,84.0,0.0,24.0,0.0
20.9997059554178,0.8810018636377893,200.96703592422193,106.14990500952024,41.64772010383263,0.0,0,157.62,185.0,144.0,0.0,15.0,0.0
21.999633619024642,0.9046109123626661,201.9568112517038,106.29203218339765,43.05943394199934,0.0,0,60.0,220.0,0.0,0.0,3.0,0.0
22.999561282631486,0.9274584164905549,202.93980727131412,106.47526470746618,44.47114778016604,0.0,0,,,,,,
23.999488946238365,0.9495919702811074,203.91431763962933,106.69928451572534,45.8828616183328,0.0,0,,,,,,
24.999416609845227,0.9710548414438719,204.87865074312805,106.9637027411615,47.29457545649952,0.0,0,,,,,,
25.999344273452078,0.9918864801212663,205.83113263459538,107.2680603907665,48.706289294666234,0.0,0,,,,,,
26.99927193705893,1.0121229551628748,206.77010993886077,107.61182914228523,50.118003132832946,0.0,0,,,,,,
27.999199600665786,1.0317973298086698,207.69395272282577,107.99441226130915,51.52971697099967,0.0,0,,,,,,
28.99912726427263,1.0509399866063331,208.60105732479957,108.41514563712357,52.94143080916638,0.0,0,,,,,,
29.9990549278795,1.069578909578022,209.48984913823122,108.87329893551087,54.35314464733312,0.0,0,,,,,,
30.998982591486353,1.0877399302133246,210.35878534500594,109.36807686650843,55.764858485499836,0.0,0,,,,,,
31.998910255093215,1.1054469427142801,211.20635759356142,109.89862056492062,57.17657232366656,0.0,0,,,,,,
32.998837918700055,1.1227220929919801,212.0310946171748,110.46400908118848,58.58828616183326,0.0,1,,,,,,
33.99876558230692,1.1396279849125257,212.83156478787578,111.06326098002923,59.705107443937905,0.0,0,,,,,,
34.99869324591377,1.1562205718603478,213.60637860155208,111.69533604407039,60.82192872604252,0.0,0,,,,,,
35.99862090952064,1.172511255064731,214.3541910899342,112.35913707952155,61.93875000814717,0.0,0,,,,,,
36.998548573127486,1.1885108245366867,215.0737041552718,113.05351182074904,63.055571290251784,0.0,0,,,,,,
37.99847623673435,1.2042295019916944,215.7636688236497,113.7772549304478,64.17239257235642,0.0,0,,,,,,
38.998403900341195,1.2196769800696385,216.42288741303167,114.52911009193802,65.28921385446104,0.0,0,,,,,,
39.99833156394805,1.234862458228763,217.0502156122687,115.30777218995507,66.40603513656566,0.0,0,,,,,,
40.99825922755491,1.2497946756464584,217.64456446746283,116.11188957614672,67.5228564186703,0.0,0,,,,,,
41.99818689116175,1.264481941421487,218.2049022722387,116.94006641534544,68.63967770077491,0.0,0,,,,,,
42.99811455476861,1.2789321623389693,218.7302563586414,117.79086510854276,69.75649898287955,0.0,0,,,,,,
43.99804221837545,1.2931528684303915,219.21971478555156,118.6628087883598,70.87332026498416,0.0,0,,,,,,
44.997969881982314,1.3071512365354874,219.6724279216877,119.55438388268223,71.9901415470888,0.0,0,,,,,,
45.99789754558917,1.3209341120505456,220.08760992044697,120.46404274200947,73.10696282919342,0.0,0,,,,,,
46.99789754558917,1.334509003543196,220.40946357623804,121.41083217174236,74.22386490396563,0.0,0,,,,,,
47.99789754558917,1.3478811489148939,220.7313172320291,122.35762160147524,75.34076697873785,0.0,0,,,,,,
48.99789754558917,1.3610565152248282,221.0531708878202,123.30441103120813,76.45766905351006,0.0,0,,,,,,
49.99789754558917,1.3740408099259867,221.37502454361126,124.25120046094102,77.57457112828227,0.0,0,,,,,,
50.99789754558917,1.386896381279938,221.69687819940233,125.19798989067391,78.0,0.0,0,,,,,,
51.99789754558917,1.3997168941004507,222.0187318551934,126.1447793204068,78.0,0.0,0,,,,,,
52.99789754558917,1.4125374069209635,222.34058551098448,127.09156875013969,78.0,0.0,0,,,,,,
53.99789754558917,1.4253579197414763,222.66243916677556,128.03835817987257,78.0,0.0,0,,,,,,
54.99789754558917,1.438178432561989,222.98429282256663,128.98514760960546,78.0,0.0,0,,,,,,
55.99789754558917,1.4509989453825018,223.3061464783577,129.93193703933835,78.0,0.0,0,,,,,,
56.99789754558917,1.4638194582030146,223.62800013414878,130.87872646907124,78.0,0.0,0,,,,,,
57.99789754558917,1.4766399710235274,223.94985378993985,131.82551589880413,78.0,0.0,0,,,,,,
58.99789754558917,1.4894604838440402,224.27170744573093,132.77230532853702,78.0,0.0,0,,,,,,
59.99789754558917,1.502280996664553,224.593561101522,133.7190947582699,78.0,0.0,0,,,,,,
60.99789754558917,1.5151015094850657,224.91541475731307,134.6658841880028,78.0,0.0,0,,,,,,
61.99789754558917,1.5279220223055785,225.23726841310415,135.61267361773568,78.0,0.0,0,,,,,,
62.99789754558917,1.5407425351260913,225.55912206889522,136.55946304746857,78.0,0.0,0,,,,,,
63.99789754558917,1.553563047946604,225.8809757246863,137.50625247720146,78.0,0.0,0,,,,,,
64.99789754558917,1.5663835607671168,226.20282938047737,138.45304190693435,78.0,0.0,0,,,,,,
65.99789754558917,1.5792040735876296,226.52468303626844,139.39983133666723,78.0,0.0,0,,,,,,
66.99789754558917,1.5920245864081424,226.84653669205952,140.34662076640012,78.0,0.0,0,,,,,,
67.99789754558917,1.6048450992286551,227.1683903478506,141.293410196133,78.0,0.0,0,,,,,,
68.99789754558917,1.617665612049168,227.49024400364166,142.2401996258659,78.0,0.0,0,,,,,,
69.99789754558917,1.6304861248696807,227.81209765943274,143.1869890555988,78.0,0.0,0,,,,,,
70.99789754558917,1.6433066376901935,228.1339513152238,144.13377848533167,78.0,0.0,0,,,,,,
71.99789754558917,1.6561271505107062,228.45580497101489,145.08056791506456,78.0,0.0,0,,,,,,
72.99789754558917,1.668947663331219,228.77765862680596,146.02735734479745,78.0,0.0,0,,,,,,
73.99877633013027,1.6817794426202075,229.1856844091882,146.94129022102842,78.0,0.0,0,,,,,,
74.99870399373715,1.694599028051065,229.56131546308785,147.867981455363,78.0,0.0,0,,,,,,
75.99863165734399,1.7074186134819218,229.97522145877687,148.778221621022,78.0,0.0,0,,,,,,
76.99855932095086,1.720238198912779,230.42668391341343,149.67043066855504,78.0,0.0,0,,,,,,
77.99848698455772,1.733057784343636,230.91491915140261,150.54305984800752,78.0,0.0,0,,,,,,
78.99841464816456,1.745877369774493,231.43907966474757,151.39459439733372,78.0,0.0,0,,,,,,
79.99834231177142,1.7586969552053502,231.99825558420466,152.22355617181165,78.0,0.0,0,,,,,,
80.99826997537826,1.771516540636207,232.59147625868908,153.02850620989506,78.0,0.0,0,,,,,,
81.99819763898515,1.7843361260670645,233.21771194018925,153.8080472310494,78.0,0.0,1,,,,,,
82.99812530259196,1.7970972867454929,233.87587557126494,154.56082606123488,78.71421884015535,0.0,0,,,,,,
83.99805296619883,1.8097431810994613,234.5648246720271,155.28553598182745,79.42843768031075,0.0,0,,,,,,
84.99798062980567,1.8222758727954738,235.28336332332256,155.98091899789898,80.14265652046612,0.0,0,,,,,,
85.99790829341254,1.8346973705715717,236.0302442426825,156.64576802192047,80.85687536062152,0.0,0,,,,,,
86.99783595701939,1.8470096301695578,236.80417094942996,157.27892896909685,81.5710942007769,0.0,0,,,,,,
87.99776362062626,1.8592145561830014,237.60380001518877,157.8793027606967,82.2853130409323,0.0,0,,,,,,
88.99769128423308,1.871314003825386,238.4277433958871,158.44584723189877,82.99953188108766,0.0,0,,,,,,
89.99761894783995,1.8833097806225119,239.27457084120755,158.97757894084447,83.71375072124306,0.0,0,,,,,,
90.99761894783997,1.8952045047996193,240.1628878784994,159.4368096467615,84.42802122915073,0.0,0,,,,,,
91.99761894783998,1.9069990221594981,241.05120491579123,159.89604035267854,85.1422917370584,0.0,0,,,,,,
92.99761894784,1.9186950069770938,241.93952195308307,160.35527105859558,85.85656224496607,0.0,0,,,,,,
93.99761894784001,1.9302940919138296,242.82783899037491,160.8145017645126,86.57083275287374,0.0,0,,,,,,
94.99761894784002,1.9417978693853273,243.71615602766676,161.27373247042965,87.28510326078141,0.0,0,,,,,,
95.99761894784004,1.9532078928733956,244.6044730649586,161.7329631763467,87.99937376868908,0.0,0,,,,,,
96.99761894784005,1.9645256781849876,245.49279010225044,162.19219388226372,88.71364427659675,0.0,0,,,,,,
97.99761894784007,1.9757527046606795,246.38110713954228,162.65142458818076,89.42791478450442,0.0,0,,,,,,
98.99761894784008,1.9868904163350805,247.26942417683412,163.1106552940978,90.1421852924121,0.0,0,,,,,,
99.9976189478401,1.997940223051449,248.15774121412596,163.56988600001483,90.85645580031976,0.0,0,,,,,,
100.99761894784011,2.008903501532668,249.0460582514178,164.02911670593187,91.57072630822744,0.0,0,,,,,,
101.99761894784012,2.019781596410613,249.93437528870965,164.4883474118489,92.2849968161351,0.0,0,,,,,,
102.99761894784014,2.030575821215839,250.8226923260015,164.94757811776594,92.99926732404278,0.0,0,,,,,,
103.99761894784015,2.0412874593294066,251.71100936329333,165.40680882368298,93.71353783195045,0.0,0,,,,,,
104.99761894784017,2.05191776489857,252.59932640058517,165.86603952960002,94.42780833985812,0.0,0,,,,,,
105.99761894784018,2.0624679637179666,253.487643437877,166.32527023551705,95.14207884776579,0.0,0,,,,,,
106.9976189478402,2.0729392540778524,254.37596047516885,166.7845009414341,95.85634935567346,0.0,0,,,,,,
107.99761894784021,2.08333280758085,255.2642775124607,167.24373164735113,96.57061986358113,0.0,0,,,,,,
108.9976189478402,2.093649769928605,256.1525945497525,167.70296235326816,97.28489037148877,0.0,0,,,,,,
109.99761894784018,2.1038912616796672,257.0409115870443,168.1621930591852,97.99916087939641,0.0,0,,,,,,
110.99761894784017,2.1140583789798573,257.92922862433613,168.62142376510224,98.71343138730406,0.0,0,,,,,,
111.99761894784015,2.124152194266299,258.81754566162795,169.08065447101927,99.4277018952117,0.0,0,,,,,,
112.99761894784014,2.134173756946259,259.70586269891976,169.5398851769363,100.14197240311934,0.0,0,,,,,,
113.99761894784012,2.14412409405186,260.5941797362116,169.99911588285335,100.85624291102698,0.0,0,,,,,,
114.99761894784011,2.1540042108716935,261.4824967735034,170.45834658877038,101.57051341893462,0.0,0,,,,,,
115.9976189478401,2.1638150915603007,262.3708138107952,170.91757729468742,102.28478392684227,0.0,0,,,,,,
116.99761894784008,2.1735576997264494,263.259130848087,171.37680800060446,102.99905443474991,0.0,0,,,,,,
117.99761894784007,2.183232979001081,264.1474478853788,171.8360387065215,103.71332494265755,0.0,0,,,,,,
118.99761894784005,2.1928418535857688,265.03576492267064,172.29526941243853,104.42759545056519,0.0,0,,,,,,
119.9993811386233,2.202401988611819,265.9057522343693,172.7919076755297,105.14312463937863,0.0,0,,,,,,
120.99930880223017,2.211879954917025,266.8126481765159,173.2130906316952,105.85734347953402,0.0,0,,,,,,
121.99923646583701,2.2212941884446593,267.7363012088506,173.59613163250992,106.57156231968939,0.0,0,,,,,,
122.99916412944391,2.2306455405875196,268.67510799906495,173.94036577244054,107.2857811598448,0.0,0,,,,,,
123.99909179305074,2.239934845791233,269.62743891004885,174.2451955092294,108.0,0.0,0,,,,,,
124.9990194566576,2.249193435269074,270.59164082871285,174.51009170114418,108.0,0.0,0,,,,,,
125.99894712026446,2.2584520247469153,271.5660400355605,174.73459452549383,108.0,0.0,0,,,,,,
126.99887478387132,2.2677106142247565,272.5489451100312,174.91831427681643,108.0,0.0,0,,,,,,
127.99887478387134,2.276969873484016,273.54564193296767,174.99952661053717,108.0,0.0,0,,,,,,
128.99887478387137,2.2862291327432755,274.54233875590415,175.08073894425792,108.0,0.0,0,,,,,,
129.9988747838714,2.295488392002535,275.53903557884064,175.16195127797866,108.0,0.0,0,,,,,,
130.99887478387143,2.3047476512617946,276.5357324017771,175.2431636116994,108.0,0.0,0,,,,,,
131.99887478387146,2.314006910521054,277.5324292247136,175.32437594542014,108.0,0.0,0,,,,,,
132.99887478387149,2.3232661697803136,278.5291260476501,175.4055882791409,108.0,0.0,0,,,,,,
133.9988747838715,2.332525429039573,279.5258228705866,175.48680061286163,108.0,0.0,0,,,,,,
134.99887478387154,2.3417846882988327,280.52251969352307,175.56801294658237,108.0,0.0,0,,,,,,
135.99887478387157,2.351043947558092,281.51921651645955,175.6492252803031,108.0,0.0,0,,,,,,
136.9988747838716,2.3603032068173517,282.51591333939604,175.73043761402386,108.0,0.0,0,,,,,,
137.99887478387163,2.3695624660766113,283.5126101623325,175.8116499477446,108.0,0.0,0,,,,,,
138.99887478387166,2.3788217253358708,284.509306985269,175.89286228146534,108.0,0.0,0,,,,,,
139.99887478387168,2.3880809845951303,285.5060038082055,175.97407461518608,108.0,0.0,0,,,,,,
140.9988747838717,2.39734024385439,286.502700631142,176.05528694890683,108.0,0.0,0,,,,,,
141.99887478387174,2.4065995031136493,287.49939745407846,176.13649928262757,108.0,0.0,0,,,,,,
142.99887478387177,2.415858762372909,288.49609427701495,176.2177116163483,108.0,0.0,0,,,,,,
143.9988747838718,2.4251180216321684,289.49279109995143,176.29892395006905,108.0,0.0,0,,,,,,
144.99887478387183,2.434377280891428,290.4894879228879,176.3801362837898,108.0,0.0,0,,,,,,
145.99887478387186,2.4436365401506874,291.4861847458244,176.46134861751054,108.0,0.0,0,,,,,,
146.99887478387188,2.452895799409947,292.4828815687609,176.54256095123128,108.0,0.0,0,,,,,,
147.9988747838719,2.4621550586692065,293.4795783916974,176.62377328495202,108.0,0.0,0,,,,,,
148.99887478387194,2.471414317928466,294.47627521463386,176.70498561867277,108.0,0.0,0,,,,,,
149.99887478387197,2.4806735771877255,295.47297203757034,176.7861979523935,108.0,0.0,0,,,,,,
150.998874783872,2.489932836446985,296.46966886050683,176.86741028611425,108.0,0.0,0,,,,,,
151.99887478387203,2.4991920957062446,297.4663656834433,176.948622619835,108.0,0.0,0,,,,,,
152.99887478387205,2.508451354965504,298.4630625063798,177.02983495355573,108.0,0.0,0,,,,,,
153.99887478387208,2.5177106142247636,299.4597593293163,177.11104728727648,108.0,0.0,0,,,,,,
154.9988747838721,2.526969873484023,300.45645615225277,177.19225962099722,108.0,0.0,0,,,,,,
155.99887478387214,2.5362291327432827,301.45315297518925,177.27347195471796,108.0,0.0,0,,,,,,
157.0035233462233,2.545531434246534,302.4459353658669,177.42742603421775,108.0,0.0,0,,,,,,
158.00345100983014,2.554790023724375,303.4453210059718,177.4603452504661,108.0,0.0,0,,,,,,
159.00345100983017,2.5640554700155085,304.4435677315376,177.4011550916796,107.85576529798747,0.0,0,,,,,,
160.0034510098302,2.5733333152086115,305.4418144571034,177.34196493289312,107.71153059597495,0.0,0,,,,,,
161.00345100983023,2.582623592532255,306.44006118266924,177.28277477410663,107.56729589396242,0.0,0,,,,,,
162.00345100983026,2.591926335348766,307.43830790823506,177.22358461532014,107.4230611919499,0.0,0,,,,,,
163.0034510098303,2.601241577154946,308.4365546338009,177.16439445653364,107.27882648993737,0.0,0,,,,,,
164.00345100983031,2.6105693515827957,309.4348013593667,177.10520429774715,107.13459178792485,0.0,0,,,,,,
165.00345100983034,2.6199096924002427,310.4330480849325,177.04601413896066,106.99035708591232,0.0,0,,,,,,
166.00345100983037,2.6292626335118756,311.43129481049834,176.98682398017417,106.8461223838998,0.0,0,,,,,,
167.0034510098304,2.638628208959682,312.42954153606416,176.92763382138767,106.70188768188727,0.0,0,,,,,,
168.00345100983043,2.6480064529237923,313.42778826163,176.86844366260118,106.55765297987475,0.0,0,,,,,,
169.00345100983046,2.657397399723227,314.4260349871958,176.8092535038147,106.41341827786222,0.0,0,,,,,,
170.00345100983048,2.6668010838166523,315.4242817127616,176.7500633450282,106.2691835758497,0.0,0,,,,,,
171.0034510098305,2.6762175398031367,316.42252843832745,176.6908731862417,106.12494887383717,0.0,0,,,,,,
172.00345100983054,2.6856468024229163,317.42077516389327,176.6316830274552,105.98071417182464,0.0,0,,,,,,
173.00345100983057,2.695088906558163,318.4190218894591,176.57249286866872,105.83647946981212,0.0,0,,,,,,
174.0034510098306,2.7045438872337586,319.4172686150249,176.51330270988223,105.6922447677996,0.0,0,,,,,,
175.00345100983063,2.7140117796180756,320.41551534059073,176.45411255109573,105.54801006578707,0.0,0,,,,,,
176.00345100983066,2.72349261902376,321.41376206615655,176.39492239230924,105.40377536377454,0.0,0,,,,,,
177.00345100983068,2.7329864409085234,322.41200879172237,176.33573223352275,105.25954066176202,0.0,0,,,,,,
178.0034510098307,2.7424932808759377,323.4102555172882,176.27654207473626,105.11530595974949,0.0,0,,,,,,
179.00345100983074,2.752013174676237,324.408502242854,176.21735191594976,104.97107125773697,0.0,0,,,,,,
180.00345100983077,2.761546158207123,325.40674896841983,176.15816175716327,104.82683655572444,0.0,0,,,,,,
181.0034510098308,2.7710922675145784,326.40499569398565,176.09897159837678,104.68260185371192,0.0,0,,,,,,
182.00345100983083,2.780651538793684,327.4032424195515,176.03978143959029,104.53836715169939,0.0,0,,,,,,
183.00345100983085,2.7902240083894423,328.4014891451173,175.9805912808038,104.39413244968686,0.0,0,,,,,,
184.00345100983088,2.799809712797607,329.3997358706831,175.9214011220173,104.24989774767434,0.0,0,,,,,,
185.0034510098309,2.809408688665517,330.39798259624894,175.8622109632308,104.10566304566181,0.0,0,,,,,,
186.00345100983094,2.8190209727929374,331.39622932181476,175.80302080444432,103.96142834364929,0.0,0,,,,,,
187.00345100983097,2.828646602132907,332.3944760473806,175.74383064565782,103.81719364163676,0.0,0,,,,,,
188.003451009831,2.8382856137925896,333.3927227729464,175.68464048687133,103.67295893962424,0.0,0,,,,,,
189.00345100983102,2.8479380450341316,334.3909694985122,175.62545032808484,103.52872423761171,0.0,0,,,,,,
190.00345100983105,2.857603933275528,335.38921622407804,175.56626016929835,103.38448953559919,0.0,0,,,,,,
191.00345100983108,2.867283316091492,336.38746294964386,175.50707001051185,103.24025483358666,0.0,0,,,,,,
