Distance (in),Time (s),X (in),Y (in),Velocity (in/s),Orientation (deg),Touch,Way X (in),Way Y (in),Way Velocity (in/s),Way Orientation (deg),Way Turn Radius (in),Touch this Point
0.0,0.0,180.0,105.0,12.0,0.0,0,180.0,105.0,12.0,0.0,6.0,0.0
1.000000000000003,0.07777770097675452,180.99864793637747,105.05198364328358,13.714311105669582,0.0,0,215.54,106.85,180.0,0.0,24.0,1.0
2.000000000000006,0.14640497257788543,181.99729587275493,105.10396728656715,15.428622211339164,0.0,0,237.0,152.27,180.0,0.0,24.0,1.0
3.0000000000000093,0.20780824201214232,182.9959438091324,105.15595092985073,17.142933317008747,0.0,0,269.72,174.77,180.0,0.0,24.0,0.0
4.000000000000012,0.2633635232794117,183.99459174550987,105.20793457313431,18.857244422678328,0.0,0,303.47,183.52,180.0,0.0,24.0,0.0
5.000000000000016,0.3140878669694091,184.99323968188733,105.25991821641789,20.57155552834791,0.0,0,345.97,180.0,180.0,0.0,24.0,0.0
6.0000000000000195,0.36075422950570457,185.9918876182648,105.31190185970146,22.285866634017495,0.0,0,385.0,164.77,180.0,0.0,24.0,0.0
7.000000000000023,0.4039637978985531,186.99053555464226,105.36388550298504,24.00017773968708,0.0,0,400.0,135.18,120.0,0.0,24.0,1
8.000000000000027,0.44419337474945547,187.98918349101973,105.41586914626862,25.714488845356662,0.0,0,420.15,101.85,120.0,0.0,24.0,1
9.00000000000003,0.4818274776681317,188.9878314273972,105.4678527895522,27.428799951026246,0.0,0,453.49,103.93,120.0,0.0,24.0,1
10.000000000000034,0.5171807115323193,189.98647936377466,105.51983643283577,29.14311105669583,0.0,0,477.65,121.01,120.0,0.0,30.0,1.0
11.000000000000037,0.5505137486354735,190.98512730015213,105.57182007611935,30.857422162365413,0.0,0,475.15,154.77,120.0,0.0,30.0,1.0
12.00000000000004,0.5820449898514246,191.9837752365296,105.62380371940293,32.571733268035,0.0,0,455.57,170.19,120.0,0.0,24.0,1
13.000000000000044,0.611959235740917,192.98242317290706,105.6757873626865,34.28604437370458,0.0,0,405.56,165.19,120.0,0.0,24.0,1
14.000000000000048,0.640414242743419,193.98107110928453,105.72777100597008,36.00035547937416,0.0,0,400.0,130.6,180.0,0.0,6.0,1.0
15.000000000000052,0.6675457546658091,194.979719045662,105.77975464925366,37.71466658504374,0.0,0,394.31,105.18,180.0,0.0,24.0,1.0
16.000000000000053,0.6934714160573143,195.97836698203946,105.83173829253724,39.42897769071332,0.0,0,348.89,98.09,180.0,0.0,12.0,0.0
17.000000000000057,0.7182938529478082,196.97701491841693,105.88372193582082,41.1432887963829,0.0,0,290.13,99.76,156.0,0.0,12.0,0.0
18.00000000000006,0.7421031248613477,197.9756628547944,105.9357055791044,42.85759990205248,0.0,0,251.8,108.1,180.0,0.0,12.0,0.0
19.000000000000064,0.7649786960407857,198.97431079117186,105.98768922238797,44.57191100772206,0.0,0,227.63,119.35,96.0,0.0,3.0,0.0
20.000000000000068,0.7869910347417582,199.97295872754933,106.03967286567155,46.28622211339164,0.0,0,222.0,135.0,180.0,0.0,24.0,0.0
21.00000000000007,0.8082029217448485,200.9716066639268,106.09165650895513,48.00053321906122,0.0,0,216.38,160.0,108.0,0.0,24.0,0.0
21.999696224479173,0.8286644207930411,201.96926239305998,106.15549683606505,49.71432355898169,0.0,0,157.62,162.0,180.0,0.0,6.0,0
22.99962388808602,0.8484370061937224,202.96375382498323,106.2596223578044,51.42851065756914,0.0,0,130.34,162.0,0.0,0.0,3.0,0
23.999551551692882,0.8675613460340109,203.95304479983835,106.40508266000565,53.142697756156615,0.0,0,,,,,,
24.99947921529975,0.8860785965535688,204.93541804704105,106.59162524395556,54.8568848547441,0.0,0,,,,,,
25.9994068789066,0.9040261151521398,205.9091683042134,106.81892629785331,56.57107195333156,0.0,0,,,,,,
26.999334542513445,0.9214379139594887,206.8726052772806,107.08659125890233,58.285259051919006,0.0,0,,,,,,
27.9992622061203,0.9383450476737866,207.82405657458466,107.39415549821614,59.99944615050647,0.0,0,,,,,,
28.99918986972717,0.9547759467774725,208.76187060992217,107.74108512734901,61.71363324909397,0.0,0,,,,,,
29.999117533334022,0.9707567051092203,209.68441946946658,108.1267779250515,63.427820347681426,0.0,0,,,,,,
30.99904519694088,0.9863113290947073,210.5901017375987,108.55056438264225,65.14200744626889,0.0,0,,,,,,
31.998972860547745,1.0014619546111685,211.47734527673992,109.01170886618124,66.85619454485638,0.0,0,,,,,,
32.9989005241546,1.0162290364019173,212.3446099563628,109.50941089342734,68.57038164344384,0.0,0,,,,,,
33.99882818776146,1.0306315141073352,213.19039032644207,110.04280652336337,70.28456874203131,0.0,1,,,,,,
34.99875585136831,1.0447774762530138,214.01321823070498,110.61096985587662,71.08830548304374,0.0,0,,,,,,
35.998683514975156,1.058764400744976,214.81166535514498,111.21291463899193,71.89204222405617,0.0,0,,,,,,
36.998611178582024,1.072595823825886,215.5843457073749,111.84759598086686,72.69577896506861,0.0,0,,,,,,
37.99853884218887,1.0862751650913633,216.3299180225154,112.51391216357766,73.49951570608104,0.0,0,,,,,,
38.99846650579573,1.0998057325645056,217.04708809144321,113.21070655554729,74.30325244709347,0.0,0,,,,,,
39.998394169402566,1.1131907274974269,217.7346110073568,113.93676961929583,75.10698918810589,0.0,0,,,,,,
40.99832183300943,1.1264332489172575,218.39129332676023,114.6908410110282,75.91072592911831,0.0,0,,,,,,
41.99824949661628,1.1395362979327432,219.015995141114,115.47161176841438,76.71446267013074,0.0,0,,,,,,
42.998177160223136,1.152502781816422,219.60763205555645,116.27772658276483,77.51819941114317,0.0,0,,,,,,
43.99810482382998,1.1653355178762632,220.16517707126164,117.10778615165646,78.3219361521556,0.0,0,,,,,,
44.99803248743685,1.1780372371296692,220.68766236816526,117.96034960792574,79.12567289316804,0.0,0,,,,,,
45.997960151043706,1.1906105877918203,221.1741809849648,118.83393702081223,79.92940963418047,0.0,0,,,,,,
46.997960151043706,1.2030590345604968,221.60137717886514,119.73809597360597,80.73320451881568,0.0,0,,,,,,
47.997960151043706,1.2153841561888523,222.02857337276546,120.6422549263997,81.53699940345089,0.0,0,,,,,,
48.997960151043706,1.2275883722387984,222.4557695666658,121.54641387919344,82.3407942880861,0.0,0,,,,,,
49.997960151043706,1.2396740317585326,222.88296576056612,122.45057283198717,83.14458917272131,0.0,0,,,,,,
50.997960151043706,1.2516434159961696,223.31016195446645,123.35473178478091,83.94838405735652,0.0,0,,,,,,
51.997960151043706,1.2634987409840757,223.73735814836678,124.25889073757465,84.75217894199173,0.0,0,,,,,,
52.997960151043706,1.2752421600012334,224.1645543422671,125.16304969036838,85.55597382662694,0.0,0,,,,,,
53.997960151043706,1.2868757659204773,224.59175053616744,126.06720864316212,86.35976871126215,0.0,0,,,,,,
54.997960151043706,1.298401593447001,225.01894673006777,126.97136759595585,87.16356359589736,0.0,0,,,,,,
55.997960151043706,1.3098216212541245,225.4461429239681,127.87552654874959,87.96735848053257,0.0,0,,,,,,
56.997960151043706,1.321137774021927,225.87333911786843,128.77968550154333,88.77115336516778,0.0,0,,,,,,
57.99796015104369,1.3323519243840007,226.30053531176875,129.68384445433705,89.57494824980297,0.0,0,,,,,,
58.99796015104368,1.3434658947872504,226.72773150566908,130.58800340713077,90.37874313443817,0.0,0,,,,,,
59.997960151043664,1.3544814592693548,227.1549276995694,131.4921623599245,91.18253801907336,0.0,0,,,,,,
60.99796015104365,1.36540034515823,227.58212389346974,132.39632131271821,91.98633290370856,0.0,0,,,,,,
61.997960151043635,1.3762242346975646,228.00932008737007,133.30048026551194,92.79012778834375,0.0,0,,,,,,
62.99796015104362,1.3869547666022515,228.4365162812704,134.20463921830566,93.59392267297895,0.0,0,,,,,,
63.99796015104361,1.3975935375473145,228.86371247517073,135.10879817109938,94.39771755761414,0.0,0,,,,,,
64.99796015104359,1.4081421035937136,229.29090866907106,136.0129571238931,95.20151244224934,0.0,0,,,,,,
65.99796015104357,1.418601981554211,229.7181048629714,136.91711607668682,96.00530732688453,0.0,0,,,,,,
66.99796015104356,1.4289746503022986,230.14530105687172,137.82127502948055,96.80910221151973,0.0,0,,,,,,
67.99796015104354,1.4392615520270102,230.57249725077205,138.72543398227427,97.61289709615492,0.0,0,,,,,,
68.99796015104353,1.4494640934362815,230.99969344467237,139.629592935068,98.41669198079012,0.0,0,,,,,,
69.99796015104351,1.4595836469113703,231.4268896385727,140.5337518878617,99.22048686542531,0.0,0,,,,,,
70.9979601510435,1.4696215516147038,231.85408583247303,141.43791084065543,100.02428175006051,0.0,0,,,,,,
71.99796015104349,1.479579114553391,232.28128202637336,142.34206979344916,100.8280766346957,0.0,0,,,,,,
72.99796015104347,1.4894576116005127,232.7084782202737,143.24622874624288,101.6318715193309,0.0,0,,,,,,
73.99796015104346,1.4992582884761838,233.13567441417402,144.1503876990366,102.4356664039661,0.0,0,,,,,,
74.99796015104344,1.5089823616902744,233.56287060807435,145.05454665183032,103.23946128860129,0.0,0,,,,,,
75.99796015104343,1.518631019448576,233.99006680197468,145.95870560462404,104.04325617323649,0.0,0,,,,,,
76.99780918336364,1.5282039826597358,234.4442518401673,146.84944352259635,104.84692971082295,0.0,0,,,,,,
77.9977368469705,1.5377045915202205,234.9080391993173,147.73530842083926,105.65066645183538,0.0,0,,,,,,
78.99766451057734,1.547133198439253,235.4083243815926,148.60108556817107,106.45440319284779,0.0,0,,,,,,
79.99759217418419,1.5564908865653448,235.9442389619806,149.44527209671426,107.25813993386022,0.0,0,,,,,,
80.99751983779106,1.565778714788244,236.51485266782345,150.26640261688178,108.06187667487266,0.0,0,,,,,,
81.9974475013979,1.5749977184579818,237.11917499364102,151.0630517610881,108.86561341588508,0.0,1,,,,,,
82.99737516500477,1.5841576154514876,237.7561569205097,151.83383665798797,109.46165911038788,0.0,0,,,,,,
83.9973028286116,1.5932677699797482,238.4246927370124,152.57741933294704,110.05770480489066,0.0,0,,,,,,
84.99723049221846,1.6023287193738638,239.1236219585987,153.2925090305788,110.65375049939347,0.0,0,,,,,,
85.99715815582532,1.61134099230512,239.8517313420234,153.97786445531486,111.24979619389627,0.0,0,,,,,,
86.99708581943214,1.6203051089700813,240.60775699136704,154.63229592612043,111.84584188839905,0.0,0,,,,,,
87.997013483039,1.6292215812707633,241.39038655198212,155.25466744161398,112.44188758290186,0.0,0,,,,,,
88.997013483039,1.6380915529157005,242.21436968947603,155.82128176293466,113.03797639631941,0.0,0,,,,,,
89.997013483039,1.646914873100357,243.03835282696994,156.38789608425535,113.63406520973696,0.0,0,,,,,,
90.997013483039,1.65569202998235,243.86233596446385,156.95451040557603,114.23015402315451,0.0,0,,,,,,
91.997013483039,1.6644235040971063,244.68631910195776,157.52112472689672,114.82624283657206,0.0,0,,,,,,
92.997013483039,1.6731097685157237,245.51030223945168,158.0877390482174,115.42233164998962,0.0,0,,,,,,
93.997013483039,1.6817512889987718,246.3342853769456,158.6543533695381,116.01842046340717,0.0,0,,,,,,
94.997013483039,1.6903485241461487,247.1582685144395,159.22096769085877,116.61450927682472,0.0,0,,,,,,
95.997013483039,1.6989019255431181,247.9822516519334,159.78758201217946,117.21059809024227,0.0,0,,,,,,
96.997013483039,1.7074119379026427,248.80623478942732,160.35419633350014,117.80668690365982,0.0,0,,,,,,
97.997013483039,1.715878999204125,249.63021792692123,160.92081065482083,118.40277571707738,0.0,0,,,,,,
98.997013483039,1.724303540828666,250.45420106441514,161.4874249761415,118.99886453049493,0.0,0,,,,,,
99.997013483039,1.7326859876909428,251.27818420190906,162.0540392974622,119.59495334391248,0.0,0,,,,,,
100.997013483039,1.7410267583678094,252.10216733940297,162.62065361878288,120.19104215733003,0.0,0,,,,,,
101.997013483039,1.7493262652237147,252.92615047689688,163.18726794010357,120.78713097074758,0.0,0,,,,,,
102.997013483039,1.7575849145330353,253.7501336143908,163.75388226142425,121.38321978416514,0.0,0,,,,,,
103.997013483039,1.765803106599411,254.5741167518847,164.32049658274494,121.97930859758269,0.0,0,,,,,,
104.997013483039,1.7739812358721712,255.3980998893786,164.88711090406562,122.57539741100024,0.0,0,,,,,,
105.99701348303898,1.782119691059937,256.2220830268725,165.4537252253863,123.17148622441779,0.0,0,,,,,,
106.99701348303897,1.7902188552414837,257.0460661643664,166.020339546707,123.76757503783534,0.0,0,,,,,,
107.99701348303896,1.7982791059739356,257.87004930186026,166.58695386802768,124.3636638512529,0.0,0,,,,,,
108.99701348303894,1.806300815398378,258.69403243935415,167.15356818934836,124.95975266467045,0.0,0,,,,,,
109.99701348303893,1.8142843503429542,259.51801557684803,167.72018251066905,125.555841478088,0.0,0,,,,,,
110.99701348303891,1.8222300724235212,260.3419987143419,168.28679683198973,126.15193029150555,0.0,0,,,,,,
111.9970134830389,1.8301383381419334,261.1659818518358,168.85341115331042,126.7480191049231,0.0,0,,,,,,
112.99701348303888,1.8380094989820206,261.9899649893297,169.4200254746311,127.34410791834065,0.0,0,,,,,,
113.99701348303887,1.8458439015033241,262.81394812682356,169.9866397959518,127.9401967317582,0.0,0,,,,,,
114.99701348303886,1.8536418874326557,263.63793126431744,170.55325411727247,128.53628554517576,0.0,0,,,,,,
115.99701348303884,1.8614037937535366,264.4619144018113,171.11986843859316,129.1323743585933,0.0,0,,,,,,
116.99701348303883,1.8691299527935787,265.2858975393052,171.68648275991384,129.72846317201083,0.0,0,,,,,,
117.99701348303881,1.8768206923098623,266.1098806767991,172.25309708123453,130.32455198542837,0.0,0,,,,,,
118.99759813312504,1.8844808012262055,266.9262861698137,172.8315879739578,130.9209893022221,0.0,0,,,,,,
119.9975257967319,1.8921010968466896,267.78026986920884,173.35174869297998,131.5170349967249,0.0,0,,,,,,
120.99745346033873,1.899686934762039,268.6551794631613,173.83588558979343,132.11308069122768,0.0,0,,,,,,
121.99738112394559,1.9072386251934708,269.5494962311452,174.28315827054763,132.70912638573049,0.0,0,,,,,,
122.99730878755244,1.9147589516425298,270.4616677644985,174.69279033250837,133.21753793665877,0.0,0,,,,,,
123.99723645115932,1.9222506321720325,271.3901106611869,175.06407071178413,133.7259494875871,0.0,0,,,,,,
124.99716411476615,1.929713884186061,272.3332132743681,175.39635491763352,134.23436103851537,0.0,0,,,,,,
125.99716411476612,1.9371494594691663,273.3012101725339,175.64731707641724,134.74280936876195,0.0,0,,,,,,
126.9971641147661,1.94455702964921,274.2692070706997,175.89827923520096,135.25125769900853,0.0,0,,,,,,
127.99716411476606,1.9519368048896144,275.23720396886546,176.14924139398468,135.7597060292551,0.0,0,,,,,,
128.99716411476604,1.9592889929968977,276.20520086703124,176.4002035527684,136.2681543595017,0.0,0,,,,,,
129.997164114766,1.9666137994557862,277.173197765197,176.65116571155212,136.77660268974827,0.0,0,,,,,,
130.99716411476598,1.9739114274636729,278.1411946633628,176.90212787033585,137.28505101999485,0.0,0,,,,,,
131.99716411476595,1.9811820779644411,279.1091915615286,177.15309002911957,137.79349935024143,0.0,0,,,,,,
132.99716411476592,1.988425949681664,280.07718845969436,177.4040521879033,138.301947680488,0.0,0,,,,,,
133.9971641147659,1.995643239151196,281.04518535786013,177.655014346687,138.8103960107346,0.0,0,,,,,,
134.99716411476587,2.0028341407531665,282.0131822560259,177.90597650547073,139.31884434098117,0.0,0,,,,,,
135.99716411476584,2.0099988467433927,282.9811791541917,178.15693866425445,139.82729267122775,0.0,0,,,,,,
136.9971641147658,2.017137547284223,283.9491760523575,178.40790082303818,140.33574100147433,0.0,0,,,,,,
137.99716411476578,2.024250430474819,284.91717295052325,178.6588629818219,140.8441893317209,0.0,0,,,,,,
138.99716411476575,2.031337682380896,285.88516984868903,178.90982514060562,141.3526376619675,0.0,0,,,,,,
139.99716411476572,2.0383994870639275,286.8531667468548,179.16078729938934,141.86108599221407,0.0,0,,,,,,
140.9971641147657,2.0454360266098277,287.8211636450206,179.41174945817306,142.36953432246065,0.0,0,,,,,,
141.99716411476567,2.052447481157122,288.78916054318637,179.66271161695678,142.87798265270723,0.0,0,,,,,,
142.99716411476564,2.0594340289246187,289.75715744135215,179.9136737757405,143.3864309829538,0.0,0,,,,,,
143.9971641147656,2.0663958462385894,290.7251543395179,180.16463593452423,143.8948793132004,0.0,0,,,,,,
144.99716411476558,2.0733331075594714,291.6931512376837,180.41559809330795,144.40332764344697,0.0,0,,,,,,
145.99716411476555,2.0802459855080992,292.6611481358495,180.66656025209167,144.91177597369355,0.0,0,,,,,,
146.99716411476552,2.087134650891479,293.62914503401527,180.9175224108754,145.42022430394013,0.0,0,,,,,,
147.9971641147655,2.0939992727281105,294.59714193218105,181.1684845696591,145.9286726341867,0.0,0,,,,,,
148.99716411476547,2.10084001827287,295.5651388303468,181.41944672844284,146.4371209644333,0.0,0,,,,,,
149.99716411476544,2.107657053041464,296.5331357285126,181.67040888722656,146.94556929467987,0.0,0,,,,,,
150.9971641147654,2.1144505408344547,297.5011326266784,181.92137104601028,147.45401762492645,0.0,0,,,,,,
151.99716411476538,2.1212206437608803,298.46912952484416,182.172333204794,147.96246595517303,0.0,0,,,,,,
152.99716411476535,2.1279675222614616,299.43712642300994,182.42329536357772,148.4709142854196,0.0,0,,,,,,
153.9989245419206,2.134703151645352,300.3980863193056,182.70627951706638,148.9802577019138,0.0,0,,,,,,
154.99885220552744,2.141403531975117,301.3789692252973,182.9005063359653,149.4886692528421,0.0,0,,,,,,
155.99877986913432,2.148081162970367,302.36709123627384,183.05370628332167,149.99708080377042,0.0,0,,,,,,
156.99870753274118,2.1547361985868476,303.3607371108085,183.16561342548223,150.5054923546987,0.0,0,,,,,,
157.99863519634803,2.1613700744832194,304.358182018821,183.23603350732049,150.95557783316954,0.0,0,,,,,,
158.99856285995486,2.167984200419605,305.35769453564114,183.26484428943655,151.40566331164035,0.0,0,,,,,,
159.99849052356174,2.1745786936436318,306.3575396475193,183.2519957603476,151.8557487901112,0.0,0,,,,,,
160.9984905235617,2.1811541453025542,307.3541273247335,183.16945485155244,152.3058668284974,0.0,0,,,,,,
161.99849052356168,2.187710192834833,308.3507150019477,183.0869139427573,152.75598486688358,0.0,0,,,,,,
162.99849052356166,2.194246950426477,309.34730267916194,183.00437303396214,153.20610290526977,0.0,0,,,,,,
163.99849052356163,2.2007645312585398,310.34389035637616,182.921832125167,153.65622094365597,0.0,0,,,,,,
164.9984905235616,2.207263047518876,311.3404780335904,182.83929121637183,154.10633898204216,0.0,0,,,,,,
165.99849052356157,2.2137426104137314,312.3370657108046,182.75675030757668,154.55645702042835,0.0,0,,,,,,
166.99849052356154,2.220203330179159,313.33365338801883,182.67420939878153,155.00657505881455,0.0,0,,,,,,
167.99849052356151,2.2266453160922715,314.33024106523305,182.59166848998638,155.45669309720074,0.0,0,,,,,,
168.9984905235615,2.233068676482334,315.3268287424473,182.50912758119122,155.90681113558693,0.0,0,,,,,,
169.99849052356146,2.239473518741692,316.3234164196615,182.42658667239607,156.35692917397313,0.0,0,,,,,,
170.99849052356143,2.2458599493365465,317.3200040968757,182.34404576360092,156.80704721235932,0.0,0,,,,,,
171.9984905235614,2.252228073817571,318.31659177408994,182.26150485480576,157.25716525074552,0.0,0,,,,,,
172.99849052356137,2.2585779968303794,319.31317945130417,182.1789639460106,157.7072832891317,0.0,0,,,,,,
173.99849052356134,2.264909822125845,320.3097671285184,182.09642303721546,158.1574013275179,0.0,0,,,,,,
174.99849052356132,2.27122365257027,321.3063548057326,182.0138821284203,158.6075193659041,0.0,0,,,,,,
175.9984905235613,2.2775195901554133,322.30294248294683,181.93134121962515,159.0576374042903,0.0,0,,,,,,
176.99849052356126,2.283797736008377,323.29953016016105,181.84880031083,159.50775544267648,0.0,0,,,,,,
177.99849052356123,2.2900581904013517,324.2961178373753,181.76625940203485,159.95787348106268,0.0,0,,,,,,
178.9984905235612,2.296301052761225,325.2927055145895,181.6837184932397,160.40799151944887,0.0,0,,,,,,
179.99849052356117,2.3025264216790577,326.2892931918037,181.60117758444454,160.85810955783506,0.0,0,,,,,,
180.99849052356114,2.3087343949194263,327.28588086901794,181.5186366756494,161.30822759622126,0.0,0,,,,,,
181.99849052356112,2.3149250694296333,328.28246854623217,181.43609576685424,161.75834563460745,0.0,0,,,,,,
182.9984905235611,2.321098541348792,329.2790562234464,181.35355485805908,162.20846367299364,0.0,0,,,,,,
