Distance (in),Time (s),X (in),Y (in),Velocity (in/s),Orientation (deg),Touch,Way X (in),Way Y (in),Way Velocity (in/s),Way Orientation (deg),Way Turn Radius (in),Touch this Point
0.0,0.0,200.0,60.0,0.0,0.0,0,200.0,60.0,0.0,0.0,3.0,0
1.0,0.16666666666666666,201.0,60.0,12.0,0.0,0,400.0,60.0,84.0,0.0,3.0,0
2.0,0.25,202.0,60.0,12.0,0.0,0,400.0,260.0,84.0,0.0,3.0,0
3.0,0.3333333333333333,203.0,60.0,12.0,0.0,0,200.0,260.0,84.0,0.0,3.0,0
4.0,0.41666666666666663,204.0,60.0,12.0,0.0,0,200.0,60.0,84.0,0.0,3.0,0
5.0,0.49999999999999994,205.0,60.0,12.0,0.0,0,300.0,60.0,84.0,0.0,3.0,0
6.0,0.5833333333333333,206.0,60.0,12.0,0.0,0,400.0,160.0,84.0,0.0,3.0,0
7.0,0.6666666666666666,207.0,60.0,12.0,0.0,0,300.0,260.0,84.0,0.0,3.0,0
8.0,0.75,208.0,60.0,12.0,0.0,0,200.0,160.0,84.0,0.0,3.0,0
9.0,0.8333333333333334,209.0,60.0,12.0,0.0,0,300.0,60.0,0.0,0.0,3.0,0
10.0,0.9166666666666667,210.0,60.0,12.0,0.0,0,,,,,,
11.0,1.0,211.0,60.0,12.0,0.0,0,,,,,,
12.0,1.0833333333333333,212.0,60.0,12.0,0.0,0,,,,,,
13.0,1.1666666666666665,213.0,60.0,12.0,0.0,0,,,,,,
14.0,1.2499999999999998,214.0,60.0,12.0,0.0,0,,,,,,
15.0,1.333333333333333,215.0,60.0,12.0,0.0,0,,,,,,
16.0,1.4166666666666663,216.0,60.0,12.0,0.0,0,,,,,,
17.0,1.4999999999999996,217.0,60.0,12.0,0.0,0,,,,,,
18.0,1.5833333333333328,218.0,60.0,12.0,0.0,0,,,,,,
19.0,1.666666666666666,219.0,60.0,12.0,0.0,0,,,,,,
20.0,1.7499999999999993,220.0,60.0,12.0,0.0,0,,,,,,
21.0,1.8333333333333326,221.0,60.0,12.0,0.0,0,,,,,,
22.0,1.9166666666666659,222.0,60.0,12.0,0.0,0,,,,,,
23.0,1.9999999999999991,223.0,60.0,12.0,0.0,0,,,,,,
24.0,2.0833333333333326,224.0,60.0,12.0,0.0,0,,,,,,
25.0,2.166666666666666,225.0,60.0,12.0,0.0,0,,,,,,
26.0,2.2499999999999996,226.0,60.0,12.0,0.0,0,,,,,,
27.0,2.333333333333333,227.0,60.0,12.0,0.0,0,,,,,,
28.0,2.4166666666666665,228.0,60.0,12.0,0.0,0,,,,,,
29.0,2.49937676316374,229.0,60.0,12.18084471792103,0.0,0,,,,,,
30.0,2.5800814162664363,230.0,60.0,12.600873846125204,0.0,0,,,,,,
31.0,2.658140015169044,231.0,60.0,13.020902974329378,0.0,0,,,,,,
32.0,2.733720563312839,232.0,60.0,13.440932102533552,0.0,0,,,,,,
33.0,2.8069755561291325,233.0,60.0,13.860961230737725,0.0,0,,,,,,
34.0,2.8780438327419544,234.0,60.0,14.2809903589419,0.0,0,,,,,,
35.0,2.947052159308028,235.0,60.0,14.701019487146073,0.0,0,,,,,,
36.0,3.0141165893511137,236.0,60.0,15.121048615350247,0.0,0,,,,,,
37.0,3.0793436377491834,237.0,60.0,15.541077743554421,0.0,0,,,,,,
38.0,3.142831298189971,238.0,60.0,15.961106871758595,0.0,0,,,,,,
39.0,3.2046699284894395,239.0,60.0,16.38113599996277,0.0,0,,,,,,
40.0,3.264943023844618,240.0,60.0,16.801165128166943,0.0,0,,,,,,
41.0,3.3237278946231252,241.0,60.0,17.221194256371117,0.0,0,,,,,,
42.0,3.381096262491307,242.0,60.0,17.64122338457529,0.0,0,,,,,,
43.0,3.4371147864096487,243.0,60.0,18.061252512779465,0.0,0,,,,,,
44.0,3.4918455281689487,244.0,60.0,18.48128164098364,0.0,0,,,,,,
45.0,3.5453463656190505,245.0,60.0,18.901310769187813,0.0,0,,,,,,
46.0,3.5976713604878316,246.0,60.0,19.321339897391987,0.0,0,,,,,,
47.0,3.6488710866497573,247.0,60.0,19.74136902559616,0.0,0,,,,,,
48.0,3.698992923839853,248.0,60.0,20.161398153800334,0.0,0,,,,,,
49.0,3.7480813210878847,249.0,60.0,20.58142728200451,0.0,0,,,,,,
50.0,3.796178033543027,250.0,60.0,21.001456410208682,0.0,0,,,,,,
51.0,3.8433223358505426,251.0,60.0,21.421485538412856,0.0,0,,,,,,
52.0,3.8895512148122813,252.0,60.0,21.84151466661703,0.0,0,,,,,,
53.0,3.9348995436985583,253.0,60.0,22.261543794821204,0.0,0,,,,,,
54.0,3.979400240269204,254.0,60.0,22.681572923025378,0.0,0,,,,,,
55.0,4.023084410297269,255.0,60.0,23.101602051229552,0.0,0,,,,,,
56.0,4.065981478162666,256.0,60.0,23.521631179433726,0.0,0,,,,,,
57.0,4.108119305888852,257.0,60.0,23.9416603076379,0.0,0,,,,,,
58.0,4.149524301828497,258.0,60.0,24.361689435842074,0.0,0,,,,,,
59.0,4.190221520059771,259.0,60.0,24.781718564046248,0.0,0,,,,,,
60.0,4.230234751430015,260.0,60.0,25.20174769225042,0.0,0,,,,,,
61.0,4.269586607075132,261.0,60.0,25.621776820454595,0.0,0,,,,,,
62.0,4.308298595148782,262.0,60.0,26.04180594865877,0.0,0,,,,,,
63.0,4.346391191413255,263.0,60.0,26.461835076862943,0.0,0,,,,,,
64.0,4.383883904271988,264.0,60.0,26.881864205067117,0.0,0,,,,,,
65.0,4.420795334760818,265.0,60.0,27.30189333327129,0.0,0,,,,,,
66.0,4.457143231959742,266.0,60.0,27.721922461475465,0.0,0,,,,,,
67.0,4.492944544238382,267.0,60.0,28.14195158967964,0.0,0,,,,,,
68.0,4.528215466705486,268.0,60.0,28.561980717883813,0.0,0,,,,,,
69.0,4.562971485194969,269.0,60.0,28.982009846087987,0.0,0,,,,,,
70.0,4.59722741708748,270.0,60.0,29.40203897429216,0.0,0,,,,,,
71.0,4.630997449236835,271.0,60.0,29.822068102496335,0.0,0,,,,,,
72.0,4.664295173244241,272.0,60.0,30.24209723070051,0.0,0,,,,,,
73.0,4.697133618299821,273.0,60.0,30.662126358904683,0.0,0,,,,,,
74.0,4.729525281790019,274.0,60.0,31.082155487108857,0.0,0,,,,,,
75.0,4.761482157850818,275.0,60.0,31.50218461531303,0.0,0,,,,,,
76.0,4.793015764030017,276.0,60.0,31.922213743517204,0.0,0,,,,,,
77.0,4.8241371662068735,277.0,60.0,32.342242871721375,0.0,0,,,,,,
78.0,4.854857001904029,278.0,60.0,32.762271999925545,0.0,0,,,,,,
79.0,4.885185502114596,279.0,60.0,33.182301128129716,0.0,0,,,,,,
80.0,4.915132511756477,280.0,60.0,33.602330256333886,0.0,0,,,,,,
81.0,4.944707508856223,281.0,60.0,34.022359384538056,0.0,0,,,,,,
82.0,4.973919622555972,282.0,60.0,34.44238851274223,0.0,0,,,,,,
83.0,5.002777650029057,283.0,60.0,34.8624176409464,0.0,0,,,,,,
84.0,5.0312900723827045,284.0,60.0,35.28244676915057,0.0,0,,,,,,
85.0,5.0594650696197405,285.0,60.0,35.70247589735474,0.0,0,,,,,,
86.0,5.087310534725349,286.0,60.0,36.12250502555891,0.0,0,,,,,,
87.0,5.114834086939563,287.0,60.0,36.54253415376308,0.0,0,,,,,,
88.0,5.14204308427133,288.0,60.0,36.96256328196725,0.0,0,,,,,,
89.0,5.168944635305562,289.0,60.0,37.38259241017142,0.0,0,,,,,,
90.0,5.195545610350584,290.0,60.0,37.80262153837559,0.0,0,,,,,,
91.0,5.221852651969695,291.0,60.0,38.22265066657976,0.0,0,,,,,,
92.0,5.247872184937231,292.0,60.0,38.64267979478393,0.0,0,,,,,,
93.0,5.273610425656469,293.0,60.0,39.0627089229881,0.0,0,,,,,,
94.0,5.299073391073897,294.0,60.0,39.48273805119227,0.0,0,,,,,,
95.0,5.324266907121828,295.0,60.0,39.90276717939644,0.0,0,,,,,,
96.0,5.349196616718996,296.0,60.0,40.32279630760061,0.0,0,,,,,,
97.0,5.373867987356608,297.0,60.0,40.74282543580478,0.0,0,,,,,,
98.0,5.398286318295372,298.0,60.0,41.16285456400895,0.0,0,,,,,,
99.0,5.422456747397195,299.0,60.0,41.58288369221312,0.0,0,,,,,,
100.0,5.446384257613572,300.0,60.0,42.00291282041729,0.0,0,,,,,,
101.0,5.470073683151179,301.0,60.0,42.422941948621464,0.0,0,,,,,,
102.0,5.493529715333737,302.0,60.0,42.842971076825634,0.0,0,,,,,,
103.0,5.5167569081779275,303.0,60.0,43.263000205029805,0.0,0,,,,,,
104.0,5.539759683699952,304.0,60.0,43.683029333233975,0.0,0,,,,,,
105.0,5.5625423369681775,305.0,60.0,44.103058461438145,0.0,0,,,,,,
106.0,5.585109040916325,306.0,60.0,44.523087589642316,0.0,0,,,,,,
107.0,5.607463850930687,307.0,60.0,44.943116717846486,0.0,0,,,,,,
108.0,5.629610709223985,308.0,60.0,45.36314584605066,0.0,0,,,,,,
109.0,5.651553449007667,309.0,60.0,45.78317497425483,0.0,0,,,,,,
110.0,5.67329579847369,310.0,60.0,46.203204102459,0.0,0,,,,,,
111.0,5.694841384596129,311.0,60.0,46.62323323066317,0.0,0,,,,,,
112.0,5.716193736762314,312.0,60.0,47.04326235886734,0.0,0,,,,,,
113.0,5.737356290242577,313.0,60.0,47.46329148707151,0.0,0,,,,,,
114.0,5.758332389507154,314.0,60.0,47.88332061527568,0.0,0,,,,,,
115.0,5.779125291398241,315.0,60.0,48.30334974347985,0.0,0,,,,,,
116.0,5.799738168164731,316.0,60.0,48.72337887168402,0.0,0,,,,,,
117.0,5.820174110366701,317.0,60.0,49.14340799988819,0.0,0,,,,,,
118.0,5.8404361296563145,318.0,60.0,49.56343712809236,0.0,0,,,,,,
119.0,5.860527161441374,319.0,60.0,49.98346625629653,0.0,0,,,,,,
120.0,5.880450067437438,320.0,60.0,50.4034953845007,0.0,0,,,,,,
121.0,5.900207638114031,321.0,60.0,50.82352451270487,0.0,0,,,,,,
122.0,5.9198025950402,322.0,60.0,51.24355364090904,0.0,0,,,,,,
123.0,5.939237593134319,323.0,60.0,51.66358276911321,0.0,0,,,,,,
124.0,5.958515222822817,324.0,60.0,52.08361189731738,0.0,0,,,,,,
125.0,5.9776380121122115,325.0,60.0,52.50364102552155,0.0,0,,,,,,
126.0,5.996608428578583,326.0,60.0,52.92367015372572,0.0,0,,,,,,
127.0,6.015428881278421,327.0,60.0,53.343699281929894,0.0,0,,,,,,
128.0,6.034101722584535,328.0,60.0,53.763728410134064,0.0,0,,,,,,
129.0,6.052629249950524,329.0,60.0,54.183757538338234,0.0,0,,,,,,
130.0,6.071013707607123,330.0,60.0,54.603786666542405,0.0,0,,,,,,
131.0,6.089257288193556,331.0,60.0,55.023815794746575,0.0,0,,,,,,
132.0,6.107362134326861,332.0,60.0,55.443844922950746,0.0,0,,,,,,
133.0,6.125330340111989,333.0,60.0,55.863874051154916,0.0,0,,,,,,
134.0,6.143163952595357,334.0,60.0,56.283903179359086,0.0,0,,,,,,
135.0,6.160864973164349,335.0,60.0,56.70393230756326,0.0,0,,,,,,
136.0,6.178435358895195,336.0,60.0,57.12396143576743,0.0,0,,,,,,
137.0,6.195877023851455,337.0,60.0,57.5439905639716,0.0,0,,,,,,
138.0,6.213191840335306,338.0,60.0,57.96401969217577,0.0,0,,,,,,
139.0,6.2303816400936425,339.0,60.0,58.38404882037994,0.0,0,,,,,,
140.0,6.247448215480951,340.0,60.0,58.80407794858411,0.0,0,,,,,,
141.0,6.264393320580806,341.0,60.0,59.22410707678828,0.0,0,,,,,,
142.0,6.281218672287729,342.0,60.0,59.64413620499245,0.0,0,,,,,,
143.0,6.297925951351094,343.0,60.0,60.06416533319662,0.0,0,,,,,,
144.0,6.314516803382659,344.0,60.0,60.48419446140079,0.0,0,,,,,,
145.0,6.33099283982923,345.0,60.0,60.90422358960496,0.0,0,,,,,,
146.0,6.347355638911908,346.0,60.0,61.32425271780913,0.0,0,,,,,,
147.0,6.36360674653327,347.0,60.0,61.7442818460133,0.0,0,,,,,,
148.0,6.379747677153809,348.0,60.0,62.16431097421747,0.0,0,,,,,,
149.0,6.395779914638856,349.0,60.0,62.58434010242164,0.0,0,,,,,,
150.0,6.411704913077181,350.0,60.0,63.00436923062581,0.0,0,,,,,,
151.0,6.427524097572395,351.0,60.0,63.42439835882998,0.0,0,,,,,,
152.0,6.443238865008233,352.0,60.0,63.84442748703415,0.0,0,,,,,,
153.0,6.458850584788754,353.0,60.0,64.26445661523833,0.0,0,,,,,,
154.0,6.474360599554419,354.0,60.0,64.68448574344251,0.0,0,,,,,,
155.0,6.489770225874999,355.0,60.0,65.10451487164669,0.0,0,,,,,,
156.0,6.505080754920205,356.0,60.0,65.52454399985086,0.0,0,,,,,,
157.0,6.520293453108892,357.0,60.0,65.94457312805504,0.0,0,,,,,,
158.0,6.535409562737652,358.0,60.0,66.36460225625922,0.0,0,,,,,,
159.0,6.550430302589573,359.0,60.0,66.7846313844634,0.0,0,,,,,,
160.0,6.565356868523928,360.0,60.0,67.20466051266757,0.0,0,,,,,,
161.0,6.580190434047476,361.0,60.0,67.62468964087175,0.0,0,,,,,,
162.0,6.594932150868092,362.0,60.0,68.04471876907593,0.0,0,,,,,,
163.0,6.609583149431351,363.0,60.0,68.4647478972801,0.0,0,,,,,,
164.0,6.624144539440706,364.0,60.0,68.88477702548428,0.0,0,,,,,,
165.0,6.638617410361858,365.0,60.0,69.30480615368846,0.0,0,,,,,,
166.0,6.653002831911886,366.0,60.0,69.72483528189264,0.0,0,,,,,,
167.0,6.667301854533685,367.0,60.0,70.14486441009682,0.0,0,,,,,,
168.0,6.681515509856249,368.0,60.0,70.56489353830099,0.0,0,,,,,,
169.0,6.695644811141291,369.0,60.0,70.98492266650517,0.0,0,,,,,,
170.0,6.7096907537166866,370.0,60.0,71.40495179470935,0.0,0,,,,,,
171.0,6.723654315397212,371.0,60.0,71.82498092291353,0.0,0,,,,,,
172.0,6.737536456893011,372.0,60.0,72.2450100511177,0.0,0,,,,,,
173.0,6.751338122206226,373.0,60.0,72.66503917932188,0.0,0,,,,,,
174.0,6.7650602390161945,374.0,60.0,73.08506830752606,0.0,0,,,,,,
175.0,6.778703719053613,375.0,60.0,73.50509743573024,0.0,0,,,,,,
176.0,6.792269458464038,376.0,60.0,73.92512656393441,0.0,0,,,,,,
177.0,6.805758338161089,377.0,60.0,74.34515569213859,0.0,0,,,,,,
178.0,6.819171224169707,378.0,60.0,74.76518482034277,0.0,0,,,,,,
179.0,6.832508967959789,379.0,60.0,75.18521394854695,0.0,0,,,,,,
180.0,6.845772406770538,380.0,60.0,75.60524307675112,0.0,0,,,,,,
181.0,6.858962363925826,381.0,60.0,76.0252722049553,0.0,0,,,,,,
182.0,6.872079649140865,382.0,60.0,76.44530133315948,0.0,0,,,,,,
183.0,6.885125058820479,383.0,60.0,76.86533046136365,0.0,0,,,,,,
184.0,6.89809937634925,384.0,60.0,77.28535958956783,0.0,0,,,,,,
185.0,6.9110033723738,385.0,60.0,77.70538871777201,0.0,0,,,,,,
186.0,6.923837805077463,386.0,60.0,78.12541784597619,0.0,0,,,,,,
187.0,6.936603420447595,387.0,60.0,78.54544697418036,0.0,0,,,,,,
188.0,6.9493009525357525,388.0,60.0,78.96547610238454,0.0,0,,,,,,
189.0,6.9619311237109756,389.0,60.0,79.38550523058872,0.0,0,,,,,,
190.0,6.9744946449063825,390.0,60.0,79.8055343587929,0.0,0,,,,,,
191.0,6.986992215859294,391.0,60.0,80.22556348699707,0.0,0,,,,,,
192.0,6.999424525345088,392.0,60.0,80.64559261520125,0.0,0,,,,,,
193.0,7.011792251404981,393.0,60.0,81.06562174340543,0.0,0,,,,,,
194.0,7.024096061567924,394.0,60.0,81.48565087160961,0.0,0,,,,,,
195.0,7.036336613066791,395.0,60.0,81.90567999981378,0.0,0,,,,,,
196.0,7.0485145530490385,396.0,60.0,82.32570912801796,0.0,0,,,,,,
197.0,7.0606305187820135,397.0,60.0,82.74573825622214,0.0,0,,,,,,
197.9953767961605,7.0726295473322685,397.9815840903885,60.16512916105579,83.16382550414811,0.0,0,,,,,,
198.99075359232097,7.084568404739598,398.8551094092092,60.642338217669156,83.58191275207405,0.0,0,,,,,,
199.98613038848146,7.09644966424928,399.52441295442367,61.37909308239558,83.97217448074375,0.0,0,,,,,,
200.98613038848146,7.108356398243662,399.52441295442367,62.37909308239558,84.0,0.0,0,,,,,,
201.98613038848146,7.120261160148424,399.52441295442367,63.37909308239558,84.0,0.0,0,,,,,,
202.98613038848146,7.1321659220531854,399.52441295442367,64.37909308239557,84.0,0.0,0,,,,,,
203.98613038848146,7.144070683957947,399.52441295442367,65.37909308239557,84.0,0.0,0,,,,,,
204.98613038848146,7.155975445862709,399.52441295442367,66.37909308239557,84.0,0.0,0,,,,,,
205.98613038848146,7.167880207767471,399.52441295442367,67.37909308239557,84.0,0.0,0,,,,,,
206.98613038848146,7.179784969672233,399.52441295442367,68.37909308239557,84.0,0.0,0,,,,,,
207.98613038848146,7.191689731576995,399.52441295442367,69.37909308239557,84.0,0.0,0,,,,,,
208.98613038848146,7.203594493481757,399.52441295442367,70.37909308239557,84.0,0.0,0,,,,,,
209.98613038848146,7.2154992553865185,399.52441295442367,71.37909308239557,84.0,0.0,0,,,,,,
210.98613038848146,7.22740401729128,399.52441295442367,72.37909308239557,84.0,0.0,0,,,,,,
211.98613038848146,7.239308779196042,399.52441295442367,73.37909308239557,84.0,0.0,0,,,,,,
212.98613038848146,7.251213541100804,399.52441295442367,74.37909308239557,84.0,0.0,0,,,,,,
213.98613038848146,7.263118303005566,399.52441295442367,75.37909308239557,84.0,0.0,0,,,,,,
214.98613038848146,7.275023064910328,399.52441295442367,76.37909308239557,84.0,0.0,0,,,,,,
215.98613038848146,7.28692782681509,399.52441295442367,77.37909308239557,84.0,0.0,0,,,,,,
216.98613038848146,7.2988325887198515,399.52441295442367,78.37909308239557,84.0,0.0,0,,,,,,
217.98613038848146,7.310737350624613,399.52441295442367,79.37909308239557,84.0,0.0,0,,,,,,
218.98613038848146,7.322642112529375,399.52441295442367,80.37909308239557,84.0,0.0,0,,,,,,
219.98613038848146,7.334546874434137,399.52441295442367,81.37909308239557,84.0,0.0,0,,,,,,
220.98613038848146,7.346451636338899,399.52441295442367,82.37909308239557,84.0,0.0,0,,,,,,
221.98613038848146,7.358356398243661,399.52441295442367,83.37909308239557,84.0,0.0,0,,,,,,
222.98613038848146,7.370261160148423,399.52441295442367,84.37909308239557,84.0,0.0,0,,,,,,
223.98613038848146,7.382165922053185,399.52441295442367,85.37909308239557,84.0,0.0,0,,,,,,
224.98613038848146,7.394070683957946,399.52441295442367,86.37909308239557,84.0,0.0,0,,,,,,
225.98613038848146,7.405975445862708,399.52441295442367,87.37909308239557,84.0,0.0,0,,,,,,
226.98613038848146,7.41788020776747,399.52441295442367,88.37909308239557,84.0,0.0,0,,,,,,
227.98613038848146,7.429784969672232,399.52441295442367,89.37909308239557,84.0,0.0,0,,,,,,
228.98613038848146,7.441689731576994,399.52441295442367,90.37909308239557,84.0,0.0,0,,,,,,
229.98613038848146,7.453594493481756,399.52441295442367,91.37909308239557,84.0,0.0,0,,,,,,
230.98613038848146,7.465499255386518,399.52441295442367,92.37909308239557,84.0,0.0,0,,,,,,
231.98613038848146,7.4774040172912795,399.52441295442367,93.37909308239557,84.0,0.0,0,,,,,,
232.98613038848146,7.489308779196041,399.52441295442367,94.37909308239557,84.0,0.0,0,,,,,,
233.98613038848146,7.501213541100803,399.52441295442367,95.37909308239557,84.0,0.0,0,,,,,,
234.98613038848146,7.513118303005565,399.52441295442367,96.37909308239557,84.0,0.0,0,,,,,,
235.98613038848146,7.525023064910327,399.52441295442367,97.37909308239557,84.0,0.0,0,,,,,,
236.98613038848146,7.536927826815089,399.52441295442367,98.37909308239557,84.0,0.0,0,,,,,,
237.98613038848146,7.548832588719851,399.52441295442367,99.37909308239557,84.0,0.0,0,,,,,,
238.98613038848146,7.5607373506246125,399.52441295442367,100.37909308239557,84.0,0.0,0,,,,,,
239.98613038848146,7.572642112529374,399.52441295442367,101.37909308239557,84.0,0.0,0,,,,,,
240.98613038848146,7.584546874434136,399.52441295442367,102.37909308239557,84.0,0.0,0,,,,,,
241.98613038848146,7.596451636338898,399.52441295442367,103.37909308239557,84.0,0.0,0,,,,,,
242.98613038848146,7.60835639824366,399.52441295442367,104.37909308239557,84.0,0.0,0,,,,,,
243.98613038848146,7.620261160148422,399.52441295442367,105.37909308239557,84.0,0.0,0,,,,,,
244.98613038848146,7.632165922053184,399.52441295442367,106.37909308239557,84.0,0.0,0,,,,,,
245.98613038848146,7.6440706839579455,399.52441295442367,107.37909308239557,84.0,0.0,0,,,,,,
246.98613038848146,7.655975445862707,399.52441295442367,108.37909308239557,84.0,0.0,0,,,,,,
247.98613038848146,7.667880207767469,399.52441295442367,109.37909308239557,84.0,0.0,0,,,,,,
248.98613038848146,7.679784969672231,399.52441295442367,110.37909308239557,84.0,0.0,0,,,,,,
249.98613038848146,7.691689731576993,399.52441295442367,111.37909308239557,84.0,0.0,0,,,,,,
250.98613038848146,7.703594493481755,399.52441295442367,112.37909308239557,84.0,0.0,0,,,,,,
251.98613038848146,7.715499255386517,399.52441295442367,113.37909308239557,84.0,0.0,0,,,,,,
252.98613038848146,7.727404017291279,399.52441295442367,114.37909308239557,84.0,0.0,0,,,,,,
253.98613038848146,7.73930877919604,399.52441295442367,115.37909308239557,84.0,0.0,0,,,,,,
254.98613038848146,7.751213541100802,399.52441295442367,116.37909308239557,84.0,0.0,0,,,,,,
255.98613038848146,7.763118303005564,399.52441295442367,117.37909308239557,84.0,0.0,0,,,,,,
256.98613038848146,7.775023064910326,399.52441295442367,118.37909308239557,84.0,0.0,0,,,,,,
257.98613038848146,7.786927826815088,399.52441295442367,119.37909308239557,84.0,0.0,0,,,,,,
258.98613038848146,7.79883258871985,399.52441295442367,120.37909308239557,84.0,0.0,0,,,,,,
259.98613038848146,7.810737350624612,399.52441295442367,121.37909308239557,84.0,0.0,0,,,,,,
260.98613038848146,7.8226421125293735,399.52441295442367,122.37909308239557,84.0,0.0,0,,,,,,
261.98613038848146,7.834546874434135,399.52441295442367,123.37909308239557,84.0,0.0,0,,,,,,
262.98613038848146,7.846451636338897,399.52441295442367,124.37909308239557,84.0,0.0,0,,,,,,
263.98613038848146,7.858356398243659,399.52441295442367,125.37909308239557,84.0,0.0,0,,,,,,
264.98613038848146,7.870261160148421,399.52441295442367,126.37909308239557,84.0,0.0,0,,,,,,
265.98613038848146,7.882165922053183,399.52441295442367,127.37909308239557,84.0,0.0,0,,,,,,
266.98613038848146,7.894070683957945,399.52441295442367,128.37909308239557,84.0,0.0,0,,,,,,
267.98613038848146,7.9059754458627065,399.52441295442367,129.37909308239557,84.0,0.0,0,,,,,,
268.98613038848146,7.917880207767468,399.52441295442367,130.37909308239557,84.0,0.0,0,,,,,,
269.98613038848146,7.92978496967223,399.52441295442367,131.37909308239557,84.0,0.0,0,,,,,,
270.98613038848146,7.941689731576992,399.52441295442367,132.37909308239557,84.0,0.0,0,,,,,,
271.98613038848146,7.953594493481754,399.52441295442367,133.37909308239557,84.0,0.0,0,,,,,,
272.98613038848146,7.965499255386516,399.52441295442367,134.37909308239557,84.0,0.0,0,,,,,,
273.98613038848146,7.977404017291278,399.52441295442367,135.37909308239557,84.0,0.0,0,,,,,,
274.98613038848146,7.9893087791960395,399.52441295442367,136.37909308239557,84.0,0.0,0,,,,,,
