Distance (in),Time (s),X (in),Y (in),Velocity (in/s),Orientation (deg),Touch,Way X (in),Way Y (in),Way Velocity (in/s),Way Orientation (deg),Way Turn Radius (in),Touch this Point
0.0,0.0,120.0,250.0,0.0,0.0,0,120.0,250.0,0.0,0.0,3.0,0
0.9999999999999981,0.16666666666666635,120.99967133381942,249.974363612975,12.0,0.0,0,255.31,246.53,60.0,0.0,10.0,0
1.9999999999999962,0.24999999999999953,121.99934266763884,249.94872722595,12.0,0.0,0,351.13,178.56,84.0,0.0,3.0,0
2.9999999999999942,0.3333333333333327,122.99901400145826,249.923090838925,12.0,0.0,0,,,,,,
3.9999999999999925,0.4166666666666659,123.99868533527768,249.8974544519,12.0,0.0,0,,,,,,
4.99999999999999,0.49999999999999906,124.9983566690971,249.871818064875,12.0,0.0,0,,,,,,
5.9999999999999885,0.5833333333333323,125.99802800291653,249.84618167784998,12.0,0.0,0,,,,,,
6.999999999999987,0.6666666666666654,126.99769933673595,249.82054529082498,12.0,0.0,0,,,,,,
7.999999999999985,0.7499999999999986,127.99737067055537,249.79490890379998,12.0,0.0,0,,,,,,
8.999999999999996,0.8333333333333328,128.9970420043748,249.76927251677498,12.0,0.0,0,,,,,,
10.000000000000009,0.9166666666666672,129.99671333819424,249.74363612974997,12.0,0.0,0,,,,,,
11.000000000000021,1.0000000000000016,130.99638467201368,249.71799974272497,12.0,0.0,0,,,,,,
12.000000000000034,1.083333333333336,131.9960560058331,249.69236335569997,12.0,0.0,0,,,,,,
13.000000000000046,1.1666666666666703,132.99572733965255,249.66672696867496,12.0,0.0,0,,,,,,
14.000000000000059,1.2500000000000047,133.99539867347198,249.64109058164996,12.0,0.0,0,,,,,,
15.000000000000071,1.333333333333339,134.99507000729142,249.61545419462496,12.0,0.0,0,,,,,,
16.00000000000008,1.4166666666666732,135.99474134111085,249.58981780759996,12.0,0.0,0,,,,,,
17.000000000000092,1.5000000000000073,136.9944126749303,249.56418142057495,12.0,0.0,0,,,,,,
18.000000000000103,1.5833333333333415,137.99408400874972,249.53854503354995,12.0,0.0,0,,,,,,
19.000000000000114,1.6666666666666756,138.99375534256916,249.51290864652495,12.0,0.0,0,,,,,,
20.000000000000124,1.7500000000000098,139.9934266763886,249.48727225949995,12.0,0.0,0,,,,,,
21.000000000000135,1.833333333333344,140.99309801020803,249.46163587247494,12.0,0.0,0,,,,,,
22.000000000000146,1.916666666666678,141.99276934402747,249.43599948544994,12.0,0.0,0,,,,,,
23.000000000000156,2.0000000000000124,142.9924406778469,249.41036309842494,12.0,0.0,0,,,,,,
24.000000000000167,2.083333333333347,143.99211201166634,249.38472671139994,12.0,0.0,0,,,,,,
25.000000000000178,2.166666666666681,144.99178334548577,249.35909032437493,12.0,0.0,0,,,,,,
26.00000000000019,2.2500000000000155,145.9914546793052,249.33345393734993,12.0,0.0,0,,,,,,
27.0000000000002,2.33333333333335,146.99112601312464,249.30781755032493,12.0,0.0,0,,,,,,
28.00000000000021,2.415458136854567,147.99079734694408,249.28218116329992,12.353178506945522,0.0,0,,,,,,
29.00000000000022,2.4949887726175413,148.9904686807635,249.25654477627492,12.794363453622148,0.0,0,,,,,,
30.00000000000023,2.5718234546258385,149.99014001458295,249.23090838924992,13.235548400298775,0.0,0,,,,,,
31.00000000000024,2.646138966732224,150.98981134840238,249.20527200222492,13.676733346975402,0.0,0,,,,,,
32.000000000000256,2.718095256232058,151.98948268222182,249.1796356151999,14.11791829365203,0.0,0,,,,,,
33.00000000000027,2.7878375060549745,152.98915401604125,249.1539992281749,14.559103240328659,0.0,0,,,,,,
34.000000000000284,2.8554978976742214,153.9888253498607,249.1283628411499,15.000288187005287,0.0,0,,,,,,
35.0000000000003,2.921197118521896,154.98849668368013,249.1027264541249,15.441473133681916,0.0,0,,,,,,
36.00000000000031,2.9850456570921713,155.98816801749956,249.0770900670999,15.882658080358544,0.0,0,,,,,,
37.00000000000033,3.047144920633124,156.987839351319,249.0514536800749,16.323843027035174,0.0,0,,,,,,
38.00000000000034,3.1075882038129845,157.98751068513843,249.0258172930499,16.765027973711803,0.0,0,,,,,,
39.000000000000355,3.166461531585576,158.98718201895787,249.0001809060249,17.20621292038843,0.0,0,,,,,,
40.00000000000037,3.223844395363925,159.9868533527773,248.9745445189999,17.64739786706506,0.0,0,,,,,,
41.000000000000384,3.27981039830824,160.98652468659674,248.9489081319749,18.088582813741688,0.0,0,,,,,,
42.0000000000004,3.334427822868355,161.98619602041617,248.9232717449499,18.529767760418316,0.0,0,,,,,,
43.00000000000041,3.387760131556467,162.9858673542356,248.89763535792488,18.970952707094945,0.0,0,,,,,,
44.000000000000426,3.4398664101597953,163.98553868805504,248.87199897089988,19.412137653771573,0.0,0,,,,,,
45.00000000000044,3.49080176115406,164.98521002187448,248.84636258387488,19.8533226004482,0.0,0,,,,,,
46.000000000000455,3.5406176538847145,165.98488135569391,248.82072619684988,20.29450754712483,0.0,0,,,,,,
47.00000000000047,3.5893622370942797,166.98455268951335,248.79508980982487,20.73569249380146,0.0,0,,,,,,
48.00000000000048,3.6370806185520643,167.98422402333279,248.76945342279987,21.176877440478087,0.0,0,,,,,,
49.0000000000005,3.6838151158560803,168.98389535715222,248.74381703577487,21.618062387154716,0.0,0,,,,,,
50.00000000000051,3.7296054819014293,169.98356669097166,248.71818064874986,22.059247333831344,0.0,0,,,,,,
51.000000000000526,3.774489108025088,170.9832380247911,248.69254426172486,22.500432280507972,0.0,0,,,,,,
52.00000000000054,3.8185012074278992,171.98290935861053,248.66690787469986,22.9416172271846,0.0,0,,,,,,
53.000000000000554,3.8616749811277997,172.98258069242996,248.64127148767486,23.38280217386123,0.0,0,,,,,,
54.00000000000057,3.904041768403403,173.9822520262494,248.61563510064985,23.823987120537858,0.0,0,,,,,,
55.00000000000058,3.945631183435417,174.98192336006883,248.58999871362485,24.265172067214486,0.0,0,,,,,,
56.0000000000006,3.9864712396380257,175.98159469388827,248.56436232659985,24.706357013891115,0.0,0,,,,,,
57.00000000000061,4.02658846298749,176.9812660277077,248.53872593957485,25.147541960567743,0.0,0,,,,,,
58.000000000000625,4.066007995496095,177.98093736152714,248.51308955254984,25.58872690724437,0.0,0,,,,,,
59.00000000000064,4.10475368984216,178.98060869534658,248.48745316552484,26.029911853921,0.0,0,,,,,,
60.000000000000654,4.142848196047955,179.980280029166,248.46181677849984,26.47109680059763,0.0,0,,,,,,
61.00000000000067,4.180313040994149,180.97995136298545,248.43618039147484,26.912281747274257,0.0,0,,,,,,
62.00000000000068,4.217168701469674,181.97962269680488,248.41054400444983,27.353466693950885,0.0,0,,,,,,
63.000000000000696,4.25343467137759,182.97929403062432,248.38490761742483,27.794651640627514,0.0,0,,,,,,
64.00000000000071,4.289129523649161,183.97896536444375,248.35927123039983,28.235836587304142,0.0,0,,,,,,
65.00000000000072,4.324270967358383,184.9786366982632,248.33363484337482,28.67702153398077,0.0,0,,,,,,
66.00000000000074,4.358875900476624,185.97830803208262,248.30799845634982,29.1182064806574,0.0,0,,,,,,
67.00000000000075,4.392960458660756,186.97797936590206,248.28236206932482,29.559391427334027,0.0,0,,,,,,
68.00000000000077,4.426540060427345,187.9776506997215,248.25672568229982,30.000576374010656,0.0,0,,,,,,
69.00000000000078,4.459629449029459,188.97732203354093,248.2310892952748,30.441761320687284,0.0,0,,,,,,
70.0000000000008,4.49224273132075,189.97699336736036,248.2054529082498,30.882946267363913,0.0,0,,,,,,
71.00000000000081,4.524393413863229,190.9766647011798,248.1798165212248,31.32413121404054,0.0,0,,,,,,
72.00000000000082,4.5560944365100084,191.97633603499924,248.1541801341998,31.76531616071717,0.0,0,,,,,,
73.00000000000084,4.5873582036720055,192.97600736881867,248.1285437471748,32.2065011073938,0.0,0,,,,,,
74.00000000000085,4.618196613457648,193.9756787026381,248.1029073601498,32.64768605407043,0.0,0,,,,,,
75.00000000000087,4.648621084856907,194.97535003645754,248.0772709731248,33.088871000747055,0.0,0,,,,,,
76.00000000000088,4.6786425831250495,195.97502137027698,248.0516345860998,33.53005594742368,0.0,0,,,,,,
77.0000000000009,4.708271643507334,196.9746927040964,248.0259981990748,33.97124089410031,0.0,0,,,,,,
78.00000000000091,4.737518393433073,197.97436403791585,248.0003618120498,34.41242584077694,0.0,0,,,,,,
79.00000000000092,4.766392573296064,198.97403537173528,247.9747254250248,34.85361078745357,0.0,0,,,,,,
80.00000000000094,4.794903555928073,199.97370670555472,247.94908903799978,35.2947957341302,0.0,0,,,,,,
81.00000000000095,4.8230603648627905,200.97337803937415,247.92345265097478,35.735980680806826,0.0,0,,,,,,
82.00000000000097,4.85087169147929,201.9730493731936,247.89781626394978,36.177165627483454,0.0,0,,,,,,
83.00000000000098,4.8783459111065,202.97272070701302,247.87217987692478,36.61835057416008,0.0,0,,,,,,
84.000000000001,4.905491098163323,203.97239204083246,247.84654348989977,37.05953552083671,0.0,0,,,,,,
85.00000000000101,4.932315040402906,204.9720633746519,247.82090710287477,37.50072046751334,0.0,0,,,,,,
86.00000000000102,4.958825252323897,205.97173470847133,247.79527071584977,37.94190541418997,0.0,0,,,,,,
87.00000000000104,4.985028987806495,206.97140604229077,247.76963432882476,38.383090360866596,0.0,0,,,,,,
88.00000000000105,5.010933252026435,207.9710773761102,247.74399794179976,38.824275307543225,0.0,0,,,,,,
89.00000000000107,5.036544812695867,208.97074870992964,247.71836155477476,39.26546025421985,0.0,0,,,,,,
90.00000000000108,5.061870210676256,209.97042004374907,247.69272516774976,39.70664520089648,0.0,0,,,,,,
91.0000000000011,5.086915770004928,210.9700913775685,247.66708878072475,40.14783014757311,0.0,0,,,,,,
92.00000000000111,5.111687607373723,211.96976271138794,247.64145239369975,40.58901509424974,0.0,0,,,,,,
93.00000000000112,5.136191641095288,212.96943404520738,247.61581600667475,41.03020004092637,0.0,0,,,,,,
94.00000000000114,5.160433599589885,213.96910537902681,247.59017961964975,41.471384987602995,0.0,0,,,,,,
95.00000000000115,5.184419029423163,214.96877671284625,247.56454323262474,41.912569934279624,0.0,0,,,,,,
96.00000000000117,5.208153302923108,215.96844804666569,247.53890684559974,42.35375488095625,0.0,0,,,,,,
97.00000000000118,5.231641625402329,216.96811938048512,247.51327045857474,42.79493982763288,0.0,0,,,,,,
98.0000000000012,5.254889042009967,217.96779071430456,247.48763407154973,43.23612477430951,0.0,0,,,,,,
99.00000000000121,5.277900444235803,218.967462048124,247.46199768452473,43.67730972098614,0.0,0,,,,,,
100.00000000000122,5.300680576087509,219.96713338194343,247.43636129749973,44.118494667662766,0.0,0,,,,,,
101.00000000000124,5.3232340399605915,220.96680471576286,247.41072491047473,44.559679614339395,0.0,0,,,,,,
102.00000000000125,5.3455653022191605,221.9664760495823,247.38508852344972,45.00086456101602,0.0,0,,,,,,
103.00000000000126,5.367678698504475,222.96614738340173,247.35945213642472,45.44204950769265,0.0,0,,,,,,
104.00000000000128,5.389578438787034,223.96581871722117,247.33381574939972,45.88323445436928,0.0,0,,,,,,
105.0000000000013,5.4112686121769356,224.9654900510406,247.30817936237472,46.32441940104591,0.0,0,,,,,,
106.00000000000131,5.4327531915062695,225.96516138486004,247.2825429753497,46.76560434772254,0.0,0,,,,,,
107.00000000000132,5.454036037696361,226.96483271867947,247.2569065883247,47.206789294399165,0.0,0,,,,,,
108.00000000000134,5.475120903921893,227.9645040524989,247.2312702012997,47.647974241075794,0.0,0,,,,,,
109.00000000000135,5.496011439583135,228.96417538631835,247.2056338142747,48.08915918775242,0.0,0,,,,,,
110.00000000000136,5.516711194096787,229.96384672013778,247.1799974272497,48.53034413442905,0.0,0,,,,,,
111.00000000000138,5.537223620515292,230.96351805395722,247.1543610402247,48.97152908110568,0.0,0,,,,,,
112.00000000000139,5.557552078983854,231.96318938777665,247.1287246531997,49.41271402778231,0.0,0,,,,,,
113.0000000000014,5.577699840043808,232.9628607215961,247.1030882661747,49.853898974458936,0.0,0,,,,,,
114.00000000000142,5.5976700877904575,233.96253205541552,247.0774518791497,50.295083921135564,0.0,0,,,,,,
115.00000000000144,5.6174659228930315,234.96220338923496,247.0518154921247,50.73626886781219,0.0,0,,,,,,
116.00000000000145,5.637090365483895,235.9618747230544,247.0261791050997,51.17745381448882,0.0,0,,,,,,
117.00000000000146,5.656546357923765,236.96154605687383,247.00054271807468,51.61863876116545,0.0,0,,,,,,
118.00000000000148,5.675836767449252,237.96121739069326,246.97490633104968,52.05982370784208,0.0,0,,,,,,
119.00000000000149,5.694964388708701,238.9608887245127,246.94926994402468,52.50100865451871,0.0,0,,,,,,
120.0000000000015,5.713931946191921,239.96056005833213,246.92363355699968,52.942193601195335,0.0,0,,,,,,
121.00000000000152,5.732742096559098,240.96023139215157,246.89799716997467,53.38337854787196,0.0,0,,,,,,
122.00000000000153,5.75139743087387,241.959902725971,246.87236078294967,53.82456349454859,0.0,0,,,,,,
123.00000000000155,5.7699004767452555,242.95957405979044,246.84672439592467,54.26574844122522,0.0,0,,,,,,
124.00000000000156,5.788253700382865,243.95924539360988,246.82108800889966,54.70693338790185,0.0,0,,,,,,
125.00000000000158,5.80645950856957,244.9589167274293,246.79545162187466,55.14811833457848,0.0,0,,,,,,
126.00000000000159,5.824520250555584,245.95858806124875,246.76981523484966,55.589303281255106,0.0,0,,,,,,
127.0000000000016,5.842438219877677,246.95825939506818,246.74417884782466,56.030488227931734,0.0,0,,,,,,
128.00000000000162,5.860215656107048,247.95793072888762,246.71854246079965,56.47167317460836,0.0,0,,,,,,
129.00000000000162,5.877854746529186,248.95760206270705,246.69290607377465,56.912858121284984,0.0,0,,,,,,
130.00000000000162,5.895357627758875,249.9572733965265,246.66726968674965,57.354043067961605,0.0,0,,,,,,
131.00000000000162,5.912726387293318,250.95694473034592,246.64163329972465,57.79522801463823,0.0,0,,,,,,
132.00000000000162,5.929963065006206,251.95661606416536,246.61599691269964,58.23641296131485,0.0,0,,,,,,
132.99863699844497,5.947046426143781,252.95403010340934,246.56658953492106,58.67699657222238,0.0,0,,,,,,
133.99822038385852,5.964018002762357,253.9431704881116,246.42247762095872,59.1179977148149,0.0,0,,,,,,
134.99780376927208,5.980863447360464,254.9129821061847,246.18033640215182,59.55899885740742,0.0,0,,,,,,
135.99738715468567,5.997572157289401,255.85377492051794,245.84258527351741,60.08918339782004,0.0,0,,,,,,
136.9969705400992,6.014134088889933,256.7561488402952,245.4125989326872,60.61936793823262,0.0,0,,,,,,
137.9969705400992,6.030558611368654,257.5717816744253,244.83402907528975,61.14977345331954,0.0,0,,,,,,
138.9969705400992,6.046841284776628,258.3874145085554,244.2554592178923,61.68017896840646,0.0,0,,,,,,
139.9969705400992,6.062984538270876,259.2030473426855,243.67688936049487,62.21058448349338,0.0,0,,,,,,
140.9969705400992,6.078990739139413,260.0186801768156,243.09831950309743,62.7409899985803,0.0,0,,,,,,
141.9969705400992,6.094862194884575,260.8343130109457,242.5197496457,63.271395513667215,0.0,0,,,,,,
142.9969705400992,6.1106011552193955,261.6499458450758,241.94117978830255,63.801801028754134,0.0,0,,,,,,
143.9969705400992,6.1262098139813315,262.4655786792059,241.3626099309051,64.33220654384105,0.0,0,,,,,,
144.9969705400992,6.141690310967432,263.281211513336,240.78404007350767,64.86261205892797,0.0,0,,,,,,
145.9969705400992,6.157044733694772,264.0968443474661,240.20547021611023,65.39301757401488,0.0,0,,,,,,
146.9969705400992,6.17227511908978,264.9124771815962,239.6269003587128,65.92342308910179,0.0,0,,,,,,
147.9969705400992,6.187383455109883,265.7281100157263,239.04833050131535,66.4538286041887,0.0,0,,,,,,
148.9969705400992,6.2023716823006865,266.5437428498564,238.4697606439179,66.98423411927561,0.0,0,,,,,,
149.9969705400992,6.21724169529175,267.3593756839865,237.89119078652047,67.51463963436252,0.0,0,,,,,,
150.9969705400992,6.231995344233835,268.1750085181166,237.31262092912303,68.04504514944944,0.0,0,,,,,,
151.9969705400992,6.246634436180354,268.9906413522467,236.7340510717256,68.57545066453635,0.0,0,,,,,,
152.9969705400992,6.261160736415605,269.8062741863768,236.15548121432815,69.10585617962326,0.0,0,,,,,,
153.9969705400992,6.2755759697322215,270.6219070205069,235.5769113569307,69.63626169471017,0.0,0,,,,,,
154.9969705400992,6.28988182166016,271.437539854637,234.99834149953327,70.16666720979708,0.0,0,,,,,,
155.9969705400992,6.304079939649412,272.2531726887671,234.41977164213583,70.697072724884,0.0,0,,,,,,
156.9969705400992,6.318171934208516,273.0688055228972,233.8412017847384,71.2274782399709,0.0,0,,,,,,
157.9969705400992,6.332159380000832,273.8844383570273,233.26263192734095,71.75788375505782,0.0,0,,,,,,
158.9969705400992,6.34604381690045,274.7000711911574,232.6840620699435,72.28828927014473,0.0,0,,,,,,
159.9969705400992,6.359826751009512,275.5157040252875,232.10549221254607,72.81869478523164,0.0,0,,,,,,
160.9969705400992,6.373509655638602,276.3313368594176,231.52692235514863,73.34910030031855,0.0,0,,,,,,
161.9969705400992,6.3870939722518285,277.1469696935477,230.9483524977512,73.87950581540547,0.0,0,,,,,,
162.9969705400992,6.400581111378097,277.9626025276778,230.36978264035375,74.40991133049238,0.0,0,,,,,,
163.9969705400992,6.413972453490023,278.7782353618079,229.7912127829563,74.94031684557929,0.0,0,,,,,,
164.9969705400992,6.427269349851849,279.593868195938,229.21264292555887,75.4707223606662,0.0,0,,,,,,
165.9969705400992,6.440473123337671,280.4095010300681,228.63407306816143,76.00112787575311,0.0,0,,,,,,
166.9969705400992,6.453585069221211,281.2251338641982,228.055503210764,76.53153339084002,0.0,0,,,,,,
167.9969705400992,6.466606455938321,282.0407666983283,227.47693335336655,77.06193890592694,0.0,0,,,,,,
168.9969705400992,6.4795385258233305,282.8563995324584,226.8983634959691,77.59234442101385,0.0,0,,,,,,
169.9969705400992,6.492382495820312,283.6720323665885,226.31979363857167,78.12274993610076,0.0,0,,,,,,
170.9969705400992,6.505139558170291,284.4876652007186,225.74122378117423,78.65315545118767,0.0,0,,,,,,
171.9969705400992,6.517810881075351,285.3032980348487,225.1626539237768,79.18356096627458,0.0,0,,,,,,
172.9969705400992,6.53039760934058,286.1189308689788,224.58408406637935,79.7139664813615,0.0,0,,,,,,
173.9969705400992,6.5429008649947225,286.9345637031089,224.0055142089819,80.24437199644841,0.0,0,,,,,,
174.9969705400992,6.555321747890399,287.750196537239,223.42694435158447,80.77477751153532,0.0,0,,,,,,
175.9969705400992,6.567661336284666,288.5658293713691,222.84837449418703,81.30518302662223,0.0,0,,,,,,
176.9969705400992,6.579920687400719,289.3814622054992,222.2698046367896,81.83558854170914,0.0,0,,,,,,
177.9969705400992,6.592100837971437,290.1970950396293,221.69123477939215,82.36599405679605,0.0,0,,,,,,
178.9969705400992,6.604202804765491,291.0127278737594,221.1126649219947,82.89639957188297,0.0,0,,,,,,
179.9969705400992,6.616227585096667,291.8283607078895,220.53409506459727,83.42680508696988,0.0,0,,,,,,
180.9969705400992,6.628176157317062,292.6439935420196,219.95552520719983,83.95721060205679,0.0,0,,,,,,
181.9969705400992,6.64008395212284,293.4596263761497,219.3769553498024,84.0,0.0,0,,,,,,
182.9969705400992,6.651988714027602,294.2752592102798,218.79838549240495,84.0,0.0,0,,,,,,
183.9969705400992,6.663893475932364,295.0908920444099,218.2198156350075,84.0,0.0,0,,,,,,
184.9969705400992,6.6757982378371254,295.90652487854,217.64124577761007,84.0,0.0,0,,,,,,
185.9969705400992,6.687702999741887,296.7221577126701,217.06267592021263,84.0,0.0,0,,,,,,
186.9969705400992,6.699607761646649,297.5377905468002,216.4841060628152,84.0,0.0,0,,,,,,
187.9969705400992,6.711512523551411,298.3534233809303,215.90553620541775,84.0,0.0,0,,,,,,
188.9969705400992,6.723417285456173,299.1690562150604,215.3269663480203,84.0,0.0,0,,,,,,
189.9969705400992,6.735322047360935,299.9846890491905,214.74839649062287,84.0,0.0,0,,,,,,
190.9969705400992,6.747226809265697,300.8003218833206,214.16982663322543,84.0,0.0,0,,,,,,
191.9969705400992,6.7591315711704585,301.6159547174507,213.591256775828,84.0,0.0,0,,,,,,
192.9969705400992,6.77103633307522,302.4315875515808,213.01268691843055,84.0,0.0,0,,,,,,
193.9969705400992,6.782941094979982,303.2472203857109,212.4341170610331,84.0,0.0,0,,,,,,
194.9969705400992,6.794845856884744,304.062853219841,211.85554720363567,84.0,0.0,0,,,,,,
